Energy (MeV/u)1	0 - [He-base] F.Hubert et al, AD&ND Tables 46(1990)1	Energy (MeV/u)2	1 - [H -base] J.F.Ziegler et al,Pergamon Press,NY(low energy)	Energy (MeV/u)3	2 - ATIMA 1.2 LS-theory (recommended for high energy)	Energy (MeV/u)4	3 - ATIMA 1.2 without LS-correction	Energy (MeV/u)5	4 - ATIMA 1.4 H.Weick, improved mean charge formula for HI	Energy (MeV/u)6	5 - electrical component of [1] - J.F.Ziegler et al	Energy (MeV/u)7	6 - nuclear component of [1] - J.F.Ziegler et al	
0.001000	1.7879    	0.001000	1.66327   	0.001000	1.3577    	0.001000	1.3577    	0.001000	1.35776   	0.001000	1.02181   	0.001000	0.641461  	
0.002000	1.95347   	0.002000	1.80436   	0.002000	1.49213   	0.002000	1.49213   	0.002000	1.49217   	0.002000	1.32513   	0.002000	0.47923   	
0.005000	2.36616   	0.005000	2.1584    	0.005000	1.89146   	0.005000	1.89146   	0.005000	1.89148   	0.005000	1.86847   	0.005000	0.289933  	
0.008000	2.69336   	0.008000	2.44375   	0.008000	2.24094   	0.008000	2.24094   	0.008000	2.24095   	0.008000	2.22859   	0.008000	0.215155  	
0.010000	2.88085   	0.010000	2.60841   	0.010000	2.4502    	0.010000	2.4502    	0.010000	2.45021   	0.010000	2.4231    	0.010000	0.185306  	
0.015000	3.35631   	0.015000	3.00493   	0.015000	2.81545   	0.015000	2.81545   	0.015000	2.81546   	0.015000	2.86651   	0.015000	0.138423  	
0.020000	3.73619   	0.020000	3.39342   	0.020000	3.13624   	0.020000	3.13624   	0.020000	3.13625   	0.020000	3.28093   	0.020000	0.112492  	
0.025000	4.15539   	0.025000	3.75648   	0.025000	3.44712   	0.025000	3.44712   	0.025000	3.44712   	0.025000	3.6611    	0.025000	0.0953773 	
0.030000	4.51069   	0.030000	4.09723   	0.030000	3.79205   	0.030000	3.79205   	0.030000	3.79205   	0.030000	4.01409   	0.030000	0.0831465 	
0.035000	4.80279   	0.035000	4.41698   	0.035000	4.11903   	0.035000	4.11903   	0.035000	4.11903   	0.035000	4.34306   	0.035000	0.0739248 	
0.040000	5.033     	0.040000	4.71648   	0.040000	4.42799   	0.040000	4.42799   	0.040000	4.42799   	0.040000	4.64979   	0.040000	0.0666976 	
0.045000	5.20377   	0.045000	4.99634   	0.045000	4.7189    	0.045000	4.7189    	0.045000	4.71891   	0.045000	4.93547   	0.045000	0.0608654 	
0.050000	5.31857   	0.050000	5.25708   	0.050000	4.99185   	0.050000	4.99185   	0.050000	4.99186   	0.050000	5.20103   	0.050000	0.0560498 	
0.055000	5.55018   	0.055000	5.49926   	0.055000	5.247     	0.055000	5.247     	0.055000	5.24701   	0.055000	5.44726   	0.055000	0.0519995 	
0.060000	5.74746   	0.060000	5.72343   	0.060000	5.48463   	0.060000	5.48463   	0.060000	5.48463   	0.060000	5.67489   	0.060000	0.0485409 	
0.070000	6.04882   	0.070000	6.12029   	0.070000	5.90892   	0.070000	5.90892   	0.070000	5.90892   	0.070000	6.07735   	0.070000	0.0429347 	
0.080000	6.37217   	0.080000	6.45312   	0.080000	6.26878   	0.080000	6.26878   	0.080000	6.26879   	0.080000	6.41454   	0.080000	0.0385745 	
0.090000	6.62619   	0.090000	6.73333   	0.090000	6.5694    	0.090000	6.5694    	0.090000	6.56941   	0.090000	6.69825   	0.090000	0.0350778 	
0.100000	6.82993   	0.100000	6.96957   	0.100000	6.81662   	0.100000	6.81662   	0.100000	6.81662   	0.100000	6.93737   	0.100000	0.0322055 	
0.120000	6.95369   	0.120000	7.30689   	0.120000	7.17521   	0.120000	7.17521   	0.120000	7.17522   	0.120000	7.27913   	0.120000	0.0277543 	
0.140000	7.00287   	0.140000	7.50384   	0.140000	7.39145   	0.140000	7.39145   	0.140000	7.39146   	0.140000	7.47939   	0.140000	0.0244535 	
0.160000	7.02029   	0.160000	7.59128   	0.160000	7.5057    	0.160000	7.5057    	0.160000	7.50571   	0.160000	7.56938   	0.160000	0.0219001 	
0.180000	7.01882   	0.180000	7.58722   	0.180000	7.54971   	0.180000	7.54971   	0.180000	7.54972   	0.180000	7.56736   	0.180000	0.0198614 	
0.200000	7.03417   	0.200000	7.54777   	0.200000	7.54703   	0.200000	7.54703   	0.200000	7.54703   	0.200000	7.52957   	0.200000	0.018193  	
0.250000	6.9058    	0.250000	7.37596   	0.250000	7.43329   	0.250000	7.43329   	0.250000	7.4333    	0.250000	7.36087   	0.250000	0.0150928 	
0.300000	6.93417   	0.300000	7.28478   	0.300000	7.26405   	0.300000	7.26405   	0.300000	7.26406   	0.300000	7.27184   	0.300000	0.0129438 	
0.350000	6.98614   	0.350000	7.20893   	0.350000	7.09038   	0.350000	7.09038   	0.350000	7.09038   	0.350000	7.19757   	0.350000	0.0113604 	
0.400000	6.97394   	0.400000	7.08156   	0.400000	6.93892   	0.400000	6.93892   	0.400000	6.93893   	0.400000	7.07142   	0.400000	0.0101417 	
0.450000	6.93545   	0.450000	6.9494    	0.450000	6.84277   	0.450000	6.84277   	0.450000	6.84278   	0.450000	6.94023   	0.450000	0.00917267	
0.500000	6.91602   	0.500000	6.85696   	0.500000	6.74028   	0.500000	6.74028   	0.500000	6.74028   	0.500000	6.84858   	0.500000	0.00838249	
0.600000	6.6087    	0.600000	6.68293   	0.600000	6.52873   	0.600000	6.52873   	0.600000	6.52873   	0.600000	6.67576   	0.600000	0.00716868	
0.700000	6.26348   	0.700000	6.50999   	0.700000	6.30148   	0.700000	6.30148   	0.700000	6.30149   	0.700000	6.50371   	0.700000	0.0062774 	
0.800000	6.13024   	0.800000	6.32683   	0.800000	6.08186   	0.800000	6.08186   	0.800000	6.08187   	0.800000	6.32123   	0.800000	0.0055934 	
0.900000	5.98304   	0.900000	6.14683   	0.900000	5.87443   	0.900000	5.87443   	0.900000	5.87443   	0.900000	6.14178   	0.900000	0.00505084	
1.000000	5.82829   	1.000000	5.97035   	1.000000	5.67837   	1.000000	5.67837   	1.000000	5.67838   	1.000000	5.96574   	1.000000	0.0046093 	
1.250000	5.38646   	1.250000	5.51175   	1.250000	5.22593   	1.250000	5.22593   	1.250000	5.22593   	1.250000	5.50796   	1.250000	0.00379511	
1.500000	4.93154   	1.500000	5.05296   	1.500000	4.81905   	1.500000	4.81905   	1.500000	4.81905   	1.500000	5.04972   	1.500000	0.0032359 	
1.750000	4.54334   	1.750000	4.66698   	1.750000	4.47579   	1.750000	4.47579   	1.750000	4.47579   	1.750000	4.66415   	1.750000	0.00282676	
2.000000	4.18214   	2.000000	4.30863   	2.000000	4.17976   	2.000000	4.17976   	2.000000	4.17976   	2.000000	4.30612   	2.000000	0.00251368	
2.250000	3.8817    	2.250000	4.00539   	2.250000	3.92095   	2.250000	3.92095   	2.250000	3.92095   	2.250000	4.00313   	2.250000	0.00226596	
2.500000	3.61506   	2.500000	3.74962   	2.500000	3.69247   	2.500000	3.69247   	2.500000	3.69247   	2.500000	3.74755   	2.500000	0.00206478	
3.000000	3.22152   	3.000000	3.33683   	3.000000	3.30727   	3.000000	3.30727   	3.000000	3.30727   	3.000000	3.33508   	3.000000	0.0017573 	
3.500000	2.90887   	3.500000	3.01261   	3.500000	2.99529   	3.500000	2.99529   	3.500000	2.99529   	3.500000	3.01108   	3.500000	0.00153282	
4.000000	2.65443   	4.000000	2.75037   	4.000000	2.73774   	4.000000	2.73774   	4.000000	2.73774   	4.000000	2.74901   	4.000000	0.00136135	
4.500000	2.44324   	4.500000	2.53307   	4.500000	2.52168   	4.500000	2.52168   	4.500000	2.52168   	4.500000	2.53185   	4.500000	0.00122588	
5.000000	2.26502   	5.000000	2.34939   	5.000000	2.33794   	5.000000	2.33794   	5.000000	2.33794   	5.000000	2.34827   	5.000000	0.001116  	
5.500000	2.11254   	5.500000	2.19173   	5.500000	2.1798    	5.500000	2.1798    	5.500000	2.1798    	5.500000	2.1907    	5.500000	0.001025  	
6.000000	1.98053   	6.000000	2.05475   	6.000000	2.04228   	6.000000	2.04228   	6.000000	2.04228   	6.000000	2.0538    	6.000000	0.000948328	
6.500000	1.86508   	6.500000	1.93455   	6.500000	1.9216    	6.500000	1.9216    	6.500000	1.9216    	6.500000	1.93367   	6.500000	0.000882807	
7.000000	1.76322   	7.000000	1.82817   	7.000000	1.81484   	7.000000	1.81484   	7.000000	1.81484   	7.000000	1.82734   	7.000000	0.000826134	
7.500000	1.67266   	7.500000	1.73331   	7.500000	1.7197    	7.500000	1.7197    	7.500000	1.71971   	7.500000	1.73253   	7.500000	0.000776607	
8.000000	1.59158   	8.000000	1.64818   	8.000000	1.63439   	8.000000	1.63439   	8.000000	1.6344    	8.000000	1.64745   	8.000000	0.000732935	
8.500000	1.51855   	8.500000	1.57134   	8.500000	1.55745   	8.500000	1.55745   	8.500000	1.55745   	8.500000	1.57065   	8.500000	0.000694122	
9.000000	1.45241   	9.000000	1.50163   	9.000000	1.48769   	9.000000	1.48769   	9.000000	1.48769   	9.000000	1.50097   	9.000000	0.000659391	
9.500000	1.39222   	9.500000	1.43808   	9.500000	1.42415   	9.500000	1.42415   	9.500000	1.42415   	9.500000	1.43745   	9.500000	0.000628118	
10.000000	1.33719   	10.000000	1.36194   	10.000000	1.36602   	10.000000	1.36602   	10.000000	1.36602   	10.000000	1.36134   	10.000000	0.000599806	
11.000000	1.24016   	11.000000	1.26544   	11.000000	1.26238   	11.000000	1.26325   	11.000000	1.26269   	11.000000	1.26489   	11.000000	0.000550504	
12.000000	1.15727   	12.000000	1.18238   	12.000000	1.17422   	12.000000	1.17566   	12.000000	1.17466   	12.000000	1.18187   	12.000000	0.000509002	
13.000000	1.0856    	13.000000	1.11012   	13.000000	1.09835   	13.000000	1.10015   	13.000000	1.09883   	13.000000	1.10965   	13.000000	0.000473562	
14.000000	1.02299   	14.000000	1.04671   	14.000000	1.0324    	14.000000	1.03444   	14.000000	1.03287   	14.000000	1.04626   	14.000000	0.000442928	
15.000000	0.967789  	15.000000	0.990595  	15.000000	0.974562  	15.000000	0.976757  	15.000000	0.975019  	15.000000	0.990179  	15.000000	0.000416174	
16.000000	0.918748  	16.000000	0.940595  	16.000000	0.923483  	16.000000	0.925749  	16.000000	0.923897  	16.000000	0.940202  	16.000000	0.000392596	
17.000000	0.874874  	17.000000	0.895755  	17.000000	0.878074  	17.000000	0.880344  	17.000000	0.878426  	17.000000	0.895383  	17.000000	0.000371653	
18.000000	0.835377  	18.000000	0.855312  	18.000000	0.83743   	18.000000	0.839691  	18.000000	0.837736  	18.000000	0.854959  	18.000000	0.000352921	
19.000000	0.799626  	19.000000	0.818646  	19.000000	0.80086   	19.000000	0.803102  	19.000000	0.801143  	19.000000	0.81831   	19.000000	0.000336062	
20.000000	0.767103  	20.000000	0.785249  	20.000000	0.767829  	20.000000	0.770017  	20.000000	0.76808   	20.000000	0.784928  	20.000000	0.000320806	
21.000000	0.737382  	21.000000	0.754699  	21.000000	0.737867  	21.000000	0.739973  	21.000000	0.738066  	21.000000	0.754392  	21.000000	0.000306931	
22.000000	0.710112  	22.000000	0.726644  	22.000000	0.710566  	22.000000	0.712586  	22.000000	0.71073   	22.000000	0.72635   	22.000000	0.000294255	
23.000000	0.684997  	23.000000	0.700788  	23.000000	0.685594  	23.000000	0.687534  	23.000000	0.685735  	23.000000	0.700506  	23.000000	0.000282627	
24.000000	0.661786  	24.000000	0.676881  	24.000000	0.662681  	24.000000	0.664545  	24.000000	0.662814  	24.000000	0.676609  	24.000000	0.00027192	
25.000000	0.640267  	25.000000	0.654707  	25.000000	0.641598  	25.000000	0.643389  	25.000000	0.64173   	25.000000	0.654445  	25.000000	0.000262028	
27.000000	0.601606  	27.000000	0.61485   	27.000000	0.604184  	27.000000	0.605808  	27.000000	0.604306  	27.000000	0.614606  	27.000000	0.000244338	
29.000000	0.567839  	29.000000	0.580027  	29.000000	0.572094  	29.000000	0.573513  	29.000000	0.572177  	29.000000	0.579798  	29.000000	0.000228973	
31.000000	0.538078  	31.000000	0.54933   	31.000000	0.54321   	31.000000	0.544373  	31.000000	0.543262  	31.000000	0.549114  	31.000000	0.000215498	
33.000000	0.511639  	33.000000	0.52206   	33.000000	0.516572  	33.000000	0.517499  	33.000000	0.516634  	33.000000	0.521856  	33.000000	0.00020358	
35.000000	0.487986  	35.000000	0.497667  	35.000000	0.492737  	35.000000	0.493457  	35.000000	0.492795  	35.000000	0.497474  	35.000000	0.000192961	
38.000000	0.456822  	38.000000	0.46554   	38.000000	0.461324  	38.000000	0.46178   	38.000000	0.461363  	38.000000	0.465361  	38.000000	0.000179033	
41.000000	0.429883  	41.000000	0.437783  	41.000000	0.434169  	41.000000	0.434398  	41.000000	0.434171  	41.000000	0.437616  	41.000000	0.00016705	
44.000000	0.406349  	44.000000	0.413551  	44.000000	0.410383  	44.000000	0.410479  	44.000000	0.410401  	44.000000	0.413394  	44.000000	0.000156629	
47.000000	0.385603  	47.000000	0.392206  	47.000000	0.389442  	47.000000	0.389395  	47.000000	0.389437  	47.000000	0.392058  	47.000000	0.000147477	
50.000000	0.367168  	50.000000	0.373254  	50.000000	0.370825  	50.000000	0.370664  	50.000000	0.370802  	50.000000	0.373115  	50.000000	0.000139375	
55.000000	0.340603  	55.000000	0.345977  	55.000000	0.343953  	55.000000	0.343678  	55.000000	0.343939  	55.000000	0.345849  	55.000000	0.00012775	
60.000000	0.318163  	60.000000	0.322973  	60.000000	0.321256  	60.000000	0.320894  	60.000000	0.321245  	60.000000	0.322855  	60.000000	0.000117979	
65.000000	0.298941  	65.000000	0.303301  	65.000000	0.301792  	65.000000	0.30139   	65.000000	0.301805  	65.000000	0.303191  	65.000000	0.000109646	
70.000000	0.282278  	70.000000	0.286278  	70.000000	0.284973  	70.000000	0.284496  	70.000000	0.284959  	70.000000	0.286175  	70.000000	0.000102453	
75.000000	0.267685  	75.000000	0.271397  	75.000000	0.270207  	75.000000	0.269714  	75.000000	0.270214  	75.000000	0.271301  	75.000000	9.61774e-05	
80.000000	0.254792  	80.000000	0.258275  	80.000000	0.257205  	80.000000	0.256668  	80.000000	0.257196  	80.000000	0.258184  	80.000000	9.06529e-05	
85.000000	0.243313  	85.000000	0.246613  	85.000000	0.245609  	85.000000	0.245065  	85.000000	0.245613  	85.000000	0.246527  	85.000000	8.57506e-05	
90.000000	0.233021  	90.000000	0.236178  	90.000000	0.235255  	90.000000	0.234676  	90.000000	0.235239  	90.000000	0.236097  	90.000000	8.13697e-05	
95.000000	0.223739  	95.000000	0.226785  	95.000000	0.225897  	95.000000	0.225317  	95.000000	0.225892  	95.000000	0.226707  	95.000000	7.74303e-05	
100.000000	0.21532   	100.000000	0.218282  	100.000000	0.217423  	100.000000	0.216842  	100.000000	0.217425  	100.000000	0.218209  	100.000000	7.38682e-05	
105.000000	0.207647  	105.000000	0.210549  	105.000000	0.209708  	105.000000	0.209129  	105.000000	0.209718  	105.000000	0.210479  	105.000000	7.06309e-05	
110.000000	0.200624  	110.000000	0.203485  	110.000000	0.20268   	110.000000	0.20208   	110.000000	0.202674  	110.000000	0.203417  	110.000000	6.76755e-05	
115.000000	0.194168  	115.000000	0.197004  	115.000000	0.196218  	115.000000	0.195611  	115.000000	0.196207  	115.000000	0.196939  	115.000000	6.49662e-05	
120.000000	0.188213  	120.000000	0.191038  	120.000000	0.190256  	120.000000	0.189653  	120.000000	0.190252  	120.000000	0.190976  	120.000000	6.24732e-05	
125.000000	0.1827    	125.000000	0.185527  	125.000000	0.18475   	125.000000	0.184148  	125.000000	0.184747  	125.000000	0.185467  	125.000000	6.01712e-05	
130.000000	0.177582  	130.000000	0.180421  	130.000000	0.179645  	130.000000	0.179046  	130.000000	0.179644  	130.000000	0.180363  	130.000000	5.80389e-05	
135.000000	0.172815  	135.000000	0.175675  	135.000000	0.1749    	135.000000	0.174303  	135.000000	0.174901  	135.000000	0.175619  	135.000000	5.60579e-05	
140.000000	0.168365  	140.000000	0.171254  	140.000000	0.170478  	140.000000	0.169883  	140.000000	0.17048   	140.000000	0.171199  	140.000000	5.42125e-05	
145.000000	0.164199  	145.000000	0.167124  	145.000000	0.166346  	145.000000	0.165753  	145.000000	0.166349  	145.000000	0.167071  	145.000000	5.24891e-05	
150.000000	0.160291  	150.000000	0.163257  	150.000000	0.162477  	150.000000	0.161887  	150.000000	0.162481  	150.000000	0.163206  	150.000000	5.08758e-05	
155.000000	0.154789  	155.000000	0.159629  	155.000000	0.158847  	155.000000	0.158259  	155.000000	0.158851  	155.000000	0.15958   	155.000000	4.93622e-05	
160.000000	0.151563  	160.000000	0.156219  	160.000000	0.155434  	160.000000	0.154848  	160.000000	0.155438  	160.000000	0.156171  	160.000000	4.79393e-05	
165.000000	0.148522  	165.000000	0.153007  	165.000000	0.152219  	165.000000	0.151636  	165.000000	0.152223  	165.000000	0.152961  	165.000000	4.65991e-05	
170.000000	0.145649  	170.000000	0.149977  	170.000000	0.149185  	170.000000	0.148604  	170.000000	0.149189  	170.000000	0.149932  	170.000000	4.53344e-05	
175.000000	0.14293   	175.000000	0.147113  	175.000000	0.146318  	175.000000	0.145739  	175.000000	0.146321  	175.000000	0.147069  	175.000000	4.41391e-05	
180.000000	0.140354  	180.000000	0.144402  	180.000000	0.143604  	180.000000	0.143028  	180.000000	0.143607  	180.000000	0.144359  	180.000000	4.30074e-05	
185.000000	0.137908  	185.000000	0.141832  	185.000000	0.141031  	185.000000	0.140457  	185.000000	0.141034  	185.000000	0.14179   	185.000000	4.19343e-05	
190.000000	0.135585  	190.000000	0.139393  	190.000000	0.138589  	190.000000	0.138017  	190.000000	0.138591  	190.000000	0.139352  	190.000000	4.09155e-05	
195.000000	0.133373  	195.000000	0.137074  	195.000000	0.136267  	195.000000	0.135698  	195.000000	0.136269  	195.000000	0.137034  	195.000000	3.99467e-05	
200.000000	0.131266  	200.000000	0.134867  	200.000000	0.134058  	200.000000	0.133491  	200.000000	0.134059  	200.000000	0.134828  	200.000000	3.90244e-05	
210.000000	0.127336  	210.000000	0.130758  	210.000000	0.129945  	210.000000	0.129382  	210.000000	0.129945  	210.000000	0.13072   	210.000000	3.73062e-05	
220.000000	0.123744  	220.000000	0.12701   	220.000000	0.126195  	220.000000	0.125636  	220.000000	0.126193  	220.000000	0.126975  	220.000000	3.5738e-05	
230.000000	0.120448  	230.000000	0.123579  	230.000000	0.122762  	230.000000	0.122207  	230.000000	0.122759  	230.000000	0.123545  	230.000000	3.43007e-05	
240.000000	0.117413  	240.000000	0.120426  	240.000000	0.119607  	240.000000	0.119056  	240.000000	0.119603  	240.000000	0.120393  	240.000000	3.29785e-05	
250.000000	0.114608  	250.000000	0.117518  	250.000000	0.116701  	250.000000	0.116152  	250.000000	0.116695  	250.000000	0.117487  	250.000000	3.17578e-05	
260.000000	0.112009  	260.000000	0.114829  	260.000000	0.114007  	260.000000	0.113468  	260.000000	0.114005  	260.000000	0.114798  	260.000000	3.06274e-05	
270.000000	0.109593  	270.000000	0.112334  	270.000000	0.111505  	270.000000	0.110978  	270.000000	0.111511  	270.000000	0.112305  	270.000000	2.95773e-05	
280.000000	0.107342  	280.000000	0.110014  	280.000000	0.109188  	280.000000	0.108664  	280.000000	0.109192  	280.000000	0.109986  	280.000000	2.85993e-05	
290.000000	0.10524   	290.000000	0.107851  	290.000000	0.107029  	290.000000	0.106508  	290.000000	0.107032  	290.000000	0.107824  	290.000000	2.76861e-05	
300.000000	0.103271  	300.000000	0.10583   	300.000000	0.105012  	300.000000	0.104493  	300.000000	0.105013  	300.000000	0.105803  	300.000000	2.68314e-05	
310.000000	0.101425  	310.000000	0.103938  	310.000000	0.103124  	310.000000	0.102608  	310.000000	0.103124  	310.000000	0.103912  	310.000000	2.60297e-05	
320.000000	0.0996896 	320.000000	0.102162  	320.000000	0.101354  	320.000000	0.10084   	320.000000	0.101352  	320.000000	0.102137  	320.000000	2.52761e-05	
330.000000	0.0980555 	330.000000	0.100493  	330.000000	0.09969   	330.000000	0.0991794 	330.000000	0.0996877 	330.000000	0.100468  	330.000000	2.45664e-05	
340.000000	0.0965143 	340.000000	0.0989209 	340.000000	0.0981247 	340.000000	0.0976162 	340.000000	0.0981211 	340.000000	0.098897  	340.000000	2.38968e-05	
350.000000	0.0950584 	350.000000	0.0974385 	350.000000	0.0966498 	350.000000	0.0961426 	350.000000	0.0966439 	350.000000	0.0974152 	350.000000	2.3264e-05	
360.000000	0.0936809 	360.000000	0.0960382 	360.000000	0.0952526 	360.000000	0.0947514 	360.000000	0.0952493 	360.000000	0.0960156 	360.000000	2.2665e-05	
370.000000	0.0923759 	370.000000	0.0947136 	370.000000	0.0939283 	370.000000	0.093436  	370.000000	0.0939309 	370.000000	0.0946915 	370.000000	2.20971e-05	
380.000000	0.0911379 	380.000000	0.0934589 	380.000000	0.0926784 	380.000000	0.0921905 	380.000000	0.0926822 	380.000000	0.0934373 	380.000000	2.15579e-05	
390.000000	0.089962  	390.000000	0.0922688 	390.000000	0.0914968 	390.000000	0.0910099 	390.000000	0.0914986 	390.000000	0.0922478 	390.000000	2.10453e-05	
400.000000	0.0888437 	400.000000	0.0911387 	400.000000	0.0903747 	400.000000	0.0898892 	400.000000	0.0903751 	400.000000	0.0911182 	400.000000	2.05573e-05	
