Energy (MeV/u)1	0 - [He-base] F.Hubert et al, AD&ND Tables 46(1990)1	Energy (MeV/u)2	1 - [H -base] J.F.Ziegler et al,Pergamon Press,NY(low energy)	Energy (MeV/u)3	2 - ATIMA 1.2 LS-theory (recommended for high energy)	Energy (MeV/u)4	3 - ATIMA 1.2 without LS-correction	Energy (MeV/u)5	4 - ATIMA 1.4 H.Weick, improved mean charge formula for HI	Energy (MeV/u)6	5 - electrical component of [1] - J.F.Ziegler et al	Energy (MeV/u)7	6 - nuclear component of [1] - J.F.Ziegler et al	
0.001000	1.7879    	0.001000	0.882677  	0.001000	0.864644  	0.001000	0.864644  	0.001000	0.864713  	0.001000	0.456747  	0.001000	0.42593   	
0.002000	1.95347   	0.002000	0.981324  	0.002000	0.969111  	0.002000	0.969111  	0.002000	0.969158  	0.002000	0.632644  	0.002000	0.34868   	
0.005000	2.36616   	0.005000	1.20614   	0.005000	1.21394   	0.005000	1.21394   	0.005000	1.21397   	0.005000	0.973175  	0.005000	0.232963  	
0.008000	2.69336   	0.008000	1.39363   	0.008000	1.42073   	0.008000	1.42073   	0.008000	1.42075   	0.008000	1.21375   	0.008000	0.179885  	
0.010000	2.88085   	0.010000	1.50545   	0.010000	1.5448    	0.010000	1.5448    	0.010000	1.54482   	0.010000	1.34795   	0.010000	0.157492  	
0.015000	3.35631   	0.015000	1.75285   	0.015000	1.82101   	0.015000	1.82101   	0.015000	1.82102   	0.015000	1.63094   	0.015000	0.12191   	
0.020000	3.73619   	0.020000	1.99183   	0.020000	2.11799   	0.020000	2.11799   	0.020000	2.118     	0.020000	1.89119   	0.020000	0.100639  	
0.025000	4.15539   	0.025000	2.23702   	0.025000	2.41858   	0.025000	2.41858   	0.025000	2.41859   	0.025000	2.15073   	0.025000	0.0862938 	
0.030000	4.51069   	0.030000	2.46248   	0.030000	2.62764   	0.030000	2.62764   	0.030000	2.62765   	0.030000	2.38731   	0.030000	0.0751708 	
0.035000	4.80279   	0.035000	2.67075   	0.035000	2.81783   	0.035000	2.81783   	0.035000	2.81784   	0.035000	2.60344   	0.035000	0.0673149 	
0.040000	5.033     	0.040000	2.86214   	0.040000	2.98971   	0.040000	2.98971   	0.040000	2.98972   	0.040000	2.80106   	0.040000	0.0610856 	
0.045000	5.20377   	0.045000	3.03798   	0.045000	3.14462   	0.045000	3.14462   	0.045000	3.14463   	0.045000	2.98196   	0.045000	0.0560115 	
0.050000	5.31857   	0.050000	3.19971   	0.050000	3.28391   	0.050000	3.28391   	0.050000	3.28392   	0.050000	3.14792   	0.050000	0.0517897 	
0.055000	5.55018   	0.055000	3.33424   	0.055000	3.40894   	0.055000	3.40894   	0.055000	3.40894   	0.055000	3.28603   	0.055000	0.0482158 	
0.060000	5.74746   	0.060000	3.45683   	0.060000	3.52103   	0.060000	3.52103   	0.060000	3.52103   	0.060000	3.41168   	0.060000	0.045147  	
0.070000	6.04882   	0.070000	3.67243   	0.070000	3.71151   	0.070000	3.71151   	0.070000	3.71151   	0.070000	3.63229   	0.070000	0.0401389 	
0.080000	6.37217   	0.080000	3.85112   	0.080000	3.8649    	0.080000	3.8649    	0.080000	3.86491   	0.080000	3.8149    	0.080000	0.036214  	
0.090000	6.62619   	0.090000	4.00839   	0.090000	3.98936   	0.090000	3.98936   	0.090000	3.98936   	0.090000	3.97535   	0.090000	0.0330469 	
0.100000	6.82993   	0.100000	4.15795   	0.100000	4.09151   	0.100000	4.09151   	0.100000	4.09152   	0.100000	4.12751   	0.100000	0.0304318 	
0.120000	6.95369   	0.120000	4.31719   	0.120000	4.24845   	0.120000	4.24845   	0.120000	4.24846   	0.120000	4.29083   	0.120000	0.0263543 	
0.140000	7.00287   	0.140000	4.44165   	0.140000	4.36384   	0.140000	4.36384   	0.140000	4.36384   	0.140000	4.41834   	0.140000	0.0233101 	
0.160000	7.02029   	0.160000	4.54094   	0.160000	4.45322   	0.160000	4.45322   	0.160000	4.45322   	0.160000	4.52      	0.160000	0.0209426 	
0.180000	7.01882   	0.180000	4.60404   	0.180000	4.52502   	0.180000	4.52502   	0.180000	4.52502   	0.180000	4.585     	0.180000	0.019044  	
0.200000	7.03417   	0.200000	4.65966   	0.200000	4.58393   	0.200000	4.58393   	0.200000	4.58393   	0.200000	4.64218   	0.200000	0.0174844 	
0.250000	6.9058    	0.250000	4.70019   	0.250000	4.69045   	0.250000	4.69045   	0.250000	4.69045   	0.250000	4.68562   	0.250000	0.0145717 	
0.300000	6.93417   	0.300000	4.77155   	0.300000	4.75436   	0.300000	4.75436   	0.300000	4.75436   	0.300000	4.75901   	0.300000	0.0125409 	
0.350000	6.98614   	0.350000	4.8291    	0.350000	4.78723   	0.350000	4.78723   	0.350000	4.78723   	0.350000	4.81806   	0.350000	0.0110376 	
0.400000	6.97394   	0.400000	4.81824   	0.400000	4.80261   	0.400000	4.80261   	0.400000	4.80262   	0.400000	4.80836   	0.400000	0.00987644	
0.450000	6.93545   	0.450000	4.77435   	0.450000	4.83524   	0.450000	4.83524   	0.450000	4.83524   	0.450000	4.7654    	0.450000	0.00895038	
0.500000	6.91602   	0.500000	4.73495   	0.500000	4.84278   	0.500000	4.84278   	0.500000	4.84278   	0.500000	4.72675   	0.500000	0.00819327	
0.600000	6.6087    	0.600000	4.69909   	0.600000	4.8075    	0.600000	4.8075    	0.600000	4.8075    	0.600000	4.69206   	0.600000	0.00702662	
0.700000	6.26348   	0.700000	4.62544   	0.700000	4.71954   	0.700000	4.71954   	0.700000	4.71955   	0.700000	4.61928   	0.700000	0.00616696	
0.800000	6.13024   	0.800000	4.59476   	0.800000	4.6112    	0.800000	4.6112    	0.800000	4.6112    	0.800000	4.58925   	0.800000	0.00550534	
0.900000	5.98304   	0.900000	4.54953   	0.900000	4.49586   	0.900000	4.49586   	0.900000	4.49586   	0.900000	4.54455   	0.900000	0.0049793 	
1.000000	5.82829   	1.000000	4.49577   	1.000000	4.37844   	1.000000	4.37844   	1.000000	4.37844   	1.000000	4.49122   	1.000000	0.00455033	
1.250000	5.38646   	1.250000	4.23392   	1.250000	4.0857    	1.250000	4.0857    	1.250000	4.0857    	1.250000	4.23016   	1.250000	0.00375711	
1.500000	4.93154   	1.500000	3.94028   	1.500000	3.80467   	1.500000	3.80467   	1.500000	3.80467   	1.500000	3.93706   	1.500000	0.00321048	
1.750000	4.54334   	1.750000	3.68933   	1.750000	3.56148   	1.750000	3.56148   	1.750000	3.56148   	1.750000	3.68652   	1.750000	0.0028095 	
2.000000	4.18214   	2.000000	3.44785   	2.000000	3.348     	2.000000	3.348     	2.000000	3.348     	2.000000	3.44535   	2.000000	0.00250201	
2.250000	3.8817    	2.250000	3.21907   	2.250000	3.15887   	2.250000	3.15887   	2.250000	3.15887   	2.250000	3.21681   	2.250000	0.00225828	
2.500000	3.61506   	2.500000	3.02635   	2.500000	2.99016   	2.500000	2.99016   	2.500000	2.99016   	2.500000	3.02429   	2.500000	0.00206003	
3.000000	3.22152   	3.000000	2.71504   	3.000000	2.70233   	3.000000	2.70233   	3.000000	2.70233   	3.000000	2.71328   	3.000000	0.00175647	
3.500000	2.90887   	3.500000	2.46946   	3.500000	2.46629   	3.500000	2.46629   	3.500000	2.46629   	3.500000	2.46792   	3.500000	0.00153438	
4.000000	2.65443   	4.000000	2.26989   	4.000000	2.26952   	4.000000	2.26952   	4.000000	2.26953   	4.000000	2.26852   	4.000000	0.00136443	
4.500000	2.44324   	4.500000	2.10372   	4.500000	2.10315   	4.500000	2.10315   	4.500000	2.10315   	4.500000	2.10249   	4.500000	0.00122996	
5.000000	2.26502   	5.000000	1.96254   	5.000000	1.96069   	5.000000	1.96069   	5.000000	1.96069   	5.000000	1.96142   	5.000000	0.00112076	
5.500000	2.11254   	5.500000	1.84077   	5.500000	1.83735   	5.500000	1.83735   	5.500000	1.83736   	5.500000	1.83974   	5.500000	0.00103021	
6.000000	1.98053   	6.000000	1.73448   	6.000000	1.72953   	6.000000	1.72953   	6.000000	1.72953   	6.000000	1.73353   	6.000000	0.000953853	
6.500000	1.86508   	6.500000	1.6408    	6.500000	1.63445   	6.500000	1.63445   	6.500000	1.63445   	6.500000	1.63991   	6.500000	0.00088854	
7.000000	1.76322   	7.000000	1.55754   	7.000000	1.54996   	7.000000	1.54996   	7.000000	1.54996   	7.000000	1.5567    	7.000000	0.000832003	
7.500000	1.67266   	7.500000	1.483     	7.500000	1.47437   	7.500000	1.47437   	7.500000	1.47438   	7.500000	1.48221   	7.500000	0.000782557	
8.000000	1.59158   	8.000000	1.41585   	8.000000	1.40633   	8.000000	1.40633   	8.000000	1.40633   	8.000000	1.41511   	8.000000	0.000738928	
8.500000	1.51855   	8.500000	1.35502   	8.500000	1.34474   	8.500000	1.34474   	8.500000	1.34474   	8.500000	1.35432   	8.500000	0.00070013	
9.000000	1.45241   	9.000000	1.29964   	9.000000	1.28871   	9.000000	1.28871   	9.000000	1.28871   	9.000000	1.29898   	9.000000	0.000665391	
9.500000	1.39222   	9.500000	1.249     	9.500000	1.23752   	9.500000	1.23752   	9.500000	1.23752   	9.500000	1.24836   	9.500000	0.000634095	
10.000000	1.33719   	10.000000	1.20824   	10.000000	1.19054   	10.000000	1.19054   	10.000000	1.19054   	10.000000	1.20764   	10.000000	0.000605748	
11.000000	1.24016   	11.000000	1.12853   	11.000000	1.10772   	11.000000	1.10862   	11.000000	1.10799   	11.000000	1.12798   	11.000000	0.000556351	
12.000000	1.15727   	12.000000	1.05906   	12.000000	1.03665   	12.000000	1.03815   	12.000000	1.03705   	12.000000	1.05854   	12.000000	0.000514735	
13.000000	1.0856    	13.000000	0.998009  	13.000000	0.974987  	13.000000	0.976862  	13.000000	0.975415  	13.000000	0.99753   	13.000000	0.00047917	
14.000000	1.02299   	14.000000	0.943976  	14.000000	0.920947  	14.000000	0.923072  	14.000000	0.921373  	14.000000	0.943527  	14.000000	0.000448408	
15.000000	0.967789  	15.000000	0.895829  	15.000000	0.873186  	15.000000	0.875473  	15.000000	0.873601  	15.000000	0.895407  	15.000000	0.000421525	
16.000000	0.918748  	16.000000	0.852664  	16.000000	0.830691  	16.000000	0.833051  	16.000000	0.831067  	16.000000	0.852266  	16.000000	0.00039782	
17.000000	0.874874  	17.000000	0.813751  	17.000000	0.792638  	17.000000	0.795002  	17.000000	0.792955  	17.000000	0.813374  	17.000000	0.000376753	
18.000000	0.835377  	18.000000	0.778493  	18.000000	0.758326  	18.000000	0.760682  	18.000000	0.758603  	18.000000	0.778135  	18.000000	0.000357901	
19.000000	0.799626  	19.000000	0.746399  	19.000000	0.727231  	19.000000	0.729567  	19.000000	0.727489  	19.000000	0.746058  	19.000000	0.000340926	
20.000000	0.767103  	20.000000	0.71706   	20.000000	0.698951  	20.000000	0.70123   	20.000000	0.69918   	20.000000	0.716735  	20.000000	0.000325559	
21.000000	0.737382  	21.000000	0.690137  	21.000000	0.673122  	21.000000	0.675316  	21.000000	0.673302  	21.000000	0.689825  	21.000000	0.000311577	
22.000000	0.710112  	22.000000	0.665341  	22.000000	0.649424  	22.000000	0.651529  	22.000000	0.649571  	22.000000	0.665042  	22.000000	0.000298798	
23.000000	0.684997  	23.000000	0.642429  	23.000000	0.627599  	23.000000	0.62962   	23.000000	0.627725  	23.000000	0.642142  	23.000000	0.000287072	
24.000000	0.661786  	24.000000	0.621192  	24.000000	0.607435  	24.000000	0.609377  	24.000000	0.607556  	24.000000	0.620916  	24.000000	0.000276271	
25.000000	0.640267  	25.000000	0.601453  	25.000000	0.588755  	25.000000	0.590621  	25.000000	0.588877  	25.000000	0.601187  	25.000000	0.000266289	
27.000000	0.601606  	27.000000	0.56587   	27.000000	0.555277  	27.000000	0.556969  	27.000000	0.555392  	27.000000	0.565622  	27.000000	0.00024843	
29.000000	0.567839  	29.000000	0.534674  	29.000000	0.52618   	29.000000	0.527658  	29.000000	0.526257  	29.000000	0.534441  	29.000000	0.00023291	
31.000000	0.538078  	31.000000	0.507093  	31.000000	0.499997  	31.000000	0.501209  	31.000000	0.500045  	31.000000	0.506874  	31.000000	0.000219291	
33.000000	0.511639  	33.000000	0.482529  	33.000000	0.476067  	33.000000	0.477032  	33.000000	0.476127  	33.000000	0.482322  	33.000000	0.000207241	
35.000000	0.487986  	35.000000	0.460507  	35.000000	0.454621  	35.000000	0.455371  	35.000000	0.454678  	35.000000	0.460311  	35.000000	0.000196499	
38.000000	0.456822  	38.000000	0.431432  	38.000000	0.426306  	38.000000	0.426781  	38.000000	0.426345  	38.000000	0.43125   	38.000000	0.000182403	
41.000000	0.429883  	41.000000	0.406248  	41.000000	0.401781  	41.000000	0.40202   	41.000000	0.401782  	41.000000	0.406077  	41.000000	0.000170269	
44.000000	0.406349  	44.000000	0.384214  	44.000000	0.380253  	44.000000	0.380353  	44.000000	0.380272  	44.000000	0.384054  	44.000000	0.00015971	
47.000000	0.385603  	47.000000	0.364768  	47.000000	0.361274  	47.000000	0.361225  	47.000000	0.361268  	47.000000	0.364618  	47.000000	0.000150435	
50.000000	0.367168  	50.000000	0.347475  	50.000000	0.344374  	50.000000	0.344206  	50.000000	0.344351  	50.000000	0.347332  	50.000000	0.000142219	
55.000000	0.340603  	55.000000	0.322537  	55.000000	0.319933  	55.000000	0.319647  	55.000000	0.319919  	55.000000	0.322407  	55.000000	0.000130424	
60.000000	0.318163  	60.000000	0.301464  	60.000000	0.299249  	60.000000	0.298872  	60.000000	0.299237  	60.000000	0.301343  	60.000000	0.000120504	
65.000000	0.298941  	65.000000	0.283412  	65.000000	0.281476  	65.000000	0.281057  	65.000000	0.28149   	65.000000	0.2833    	65.000000	0.000112041	
70.000000	0.282278  	70.000000	0.267769  	70.000000	0.2661    	70.000000	0.265603  	70.000000	0.266086  	70.000000	0.267664  	70.000000	0.000104731	
75.000000	0.267685  	75.000000	0.254077  	75.000000	0.252577  	75.000000	0.252064  	75.000000	0.252585  	75.000000	0.253979  	75.000000	9.8351e-05	
80.000000	0.254792  	80.000000	0.24199   	80.000000	0.240659  	80.000000	0.240099  	80.000000	0.240649  	80.000000	0.241897  	80.000000	9.27321e-05	
85.000000	0.243313  	85.000000	0.231238  	85.000000	0.230013  	85.000000	0.229446  	85.000000	0.230017  	85.000000	0.23115   	85.000000	8.77441e-05	
90.000000	0.233021  	90.000000	0.221609  	90.000000	0.220501  	90.000000	0.219898  	90.000000	0.220484  	90.000000	0.221526  	90.000000	8.32852e-05	
95.000000	0.223739  	95.000000	0.212935  	95.000000	0.211893  	95.000000	0.211289  	95.000000	0.211887  	95.000000	0.212856  	95.000000	7.92743e-05	
100.000000	0.21532   	100.000000	0.205078  	100.000000	0.204091  	100.000000	0.203486  	100.000000	0.204093  	100.000000	0.205003  	100.000000	7.56463e-05	
105.000000	0.207647  	105.000000	0.197928  	105.000000	0.196983  	105.000000	0.196379  	105.000000	0.196993  	105.000000	0.197856  	105.000000	7.23482e-05	
110.000000	0.200624  	110.000000	0.191392  	110.000000	0.190504  	110.000000	0.189879  	110.000000	0.190498  	110.000000	0.191323  	110.000000	6.93365e-05	
115.000000	0.194168  	115.000000	0.185394  	115.000000	0.184543  	115.000000	0.18391   	115.000000	0.184531  	115.000000	0.185327  	115.000000	6.65749e-05	
120.000000	0.188213  	120.000000	0.179869  	120.000000	0.179038  	120.000000	0.17841   	120.000000	0.179033  	120.000000	0.179805  	120.000000	6.40331e-05	
125.000000	0.1827    	125.000000	0.174764  	125.000000	0.173951  	125.000000	0.173324  	125.000000	0.173948  	125.000000	0.174702  	125.000000	6.16855e-05	
130.000000	0.177582  	130.000000	0.170031  	130.000000	0.169232  	130.000000	0.168608  	130.000000	0.169232  	130.000000	0.169971  	130.000000	5.95104e-05	
135.000000	0.172815  	135.000000	0.165631  	135.000000	0.164844  	135.000000	0.164222  	135.000000	0.164845  	135.000000	0.165574  	135.000000	5.74893e-05	
140.000000	0.168365  	140.000000	0.16153   	140.000000	0.160752  	140.000000	0.160132  	140.000000	0.160754  	140.000000	0.161475  	140.000000	5.56062e-05	
145.000000	0.164199  	145.000000	0.157699  	145.000000	0.156927  	145.000000	0.15631   	145.000000	0.15693   	145.000000	0.157645  	145.000000	5.38471e-05	
150.000000	0.160291  	150.000000	0.154111  	150.000000	0.153345  	150.000000	0.15273   	150.000000	0.153348  	150.000000	0.154059  	150.000000	5.22002e-05	
155.000000	0.154789  	155.000000	0.150744  	155.000000	0.149982  	155.000000	0.149369  	155.000000	0.149985  	155.000000	0.150693  	155.000000	5.06548e-05	
160.000000	0.151563  	160.000000	0.147577  	160.000000	0.146818  	160.000000	0.146208  	160.000000	0.146822  	160.000000	0.147528  	160.000000	4.92017e-05	
165.000000	0.148522  	165.000000	0.144595  	165.000000	0.143838  	165.000000	0.14323   	165.000000	0.143842  	165.000000	0.144547  	165.000000	4.78328e-05	
170.000000	0.145649  	170.000000	0.14178   	170.000000	0.141024  	170.000000	0.140419  	170.000000	0.141028  	170.000000	0.141733  	170.000000	4.65409e-05	
175.000000	0.14293   	175.000000	0.139119  	175.000000	0.138365  	175.000000	0.137762  	175.000000	0.138368  	175.000000	0.139074  	175.000000	4.53196e-05	
180.000000	0.140354  	180.000000	0.1366    	180.000000	0.135846  	180.000000	0.135246  	180.000000	0.135849  	180.000000	0.136556  	180.000000	4.41631e-05	
185.000000	0.137908  	185.000000	0.134211  	185.000000	0.133458  	185.000000	0.13286   	185.000000	0.133461  	185.000000	0.134168  	185.000000	4.30665e-05	
190.000000	0.135585  	190.000000	0.131943  	190.000000	0.131191  	190.000000	0.130595  	190.000000	0.131193  	190.000000	0.131901  	190.000000	4.2025e-05	
195.000000	0.133373  	195.000000	0.129787  	195.000000	0.129035  	195.000000	0.128442  	195.000000	0.129037  	195.000000	0.129746  	195.000000	4.10346e-05	
200.000000	0.131266  	200.000000	0.127735  	200.000000	0.126983  	200.000000	0.126392  	200.000000	0.126984  	200.000000	0.127695  	200.000000	4.00916e-05	
210.000000	0.127336  	210.000000	0.123914  	210.000000	0.123161  	210.000000	0.122575  	210.000000	0.123161  	210.000000	0.123875  	210.000000	3.83346e-05	
220.000000	0.123744  	220.000000	0.120427  	220.000000	0.119676  	220.000000	0.119093  	220.000000	0.119674  	220.000000	0.120391  	220.000000	3.67305e-05	
230.000000	0.120448  	230.000000	0.117235  	230.000000	0.116484  	230.000000	0.115906  	230.000000	0.116481  	230.000000	0.117199  	230.000000	3.526e-05 	
240.000000	0.117413  	240.000000	0.1143    	240.000000	0.113551  	240.000000	0.112977  	240.000000	0.113547  	240.000000	0.114266  	240.000000	3.39069e-05	
250.000000	0.114608  	250.000000	0.111593  	250.000000	0.110848  	250.000000	0.110276  	250.000000	0.110841  	250.000000	0.111561  	250.000000	3.26575e-05	
260.000000	0.112009  	260.000000	0.10909   	260.000000	0.108341  	260.000000	0.107779  	260.000000	0.108339  	260.000000	0.109058  	260.000000	3.15002e-05	
270.000000	0.109593  	270.000000	0.106767  	270.000000	0.106012  	270.000000	0.105464  	270.000000	0.106019  	270.000000	0.106736  	270.000000	3.0425e-05	
280.000000	0.107342  	280.000000	0.104606  	280.000000	0.103857  	280.000000	0.103311  	280.000000	0.103861  	280.000000	0.104577  	280.000000	2.94234e-05	
290.000000	0.10524   	290.000000	0.102591  	290.000000	0.101848  	290.000000	0.101304  	290.000000	0.101851  	290.000000	0.102563  	290.000000	2.8488e-05	
300.000000	0.103271  	300.000000	0.100709  	300.000000	0.0999708 	300.000000	0.0994305 	300.000000	0.0999721 	300.000000	0.100681  	300.000000	2.76124e-05	
310.000000	0.101425  	310.000000	0.0989455 	310.000000	0.0982142 	310.000000	0.0976766 	310.000000	0.0982141 	310.000000	0.0989187 	310.000000	2.67909e-05	
320.000000	0.0996896 	320.000000	0.097291  	320.000000	0.0965668 	320.000000	0.0960319 	320.000000	0.0965654 	320.000000	0.097265  	320.000000	2.60186e-05	
330.000000	0.0980555 	330.000000	0.0957357 	330.000000	0.0950187 	330.000000	0.0944868 	330.000000	0.0950164 	330.000000	0.0957105 	330.000000	2.52912e-05	
340.000000	0.0965143 	340.000000	0.0942712 	340.000000	0.0935625 	340.000000	0.0930328 	340.000000	0.0935588 	340.000000	0.0942466 	340.000000	2.46048e-05	
350.000000	0.0950584 	350.000000	0.0928898 	350.000000	0.0921906 	350.000000	0.0916623 	350.000000	0.0921845 	350.000000	0.0928658 	350.000000	2.39561e-05	
360.000000	0.0936809 	360.000000	0.0915848 	360.000000	0.0908907 	360.000000	0.0903685 	360.000000	0.0908873 	360.000000	0.0915615 	360.000000	2.33418e-05	
370.000000	0.0923759 	370.000000	0.0903503 	370.000000	0.0896584 	370.000000	0.0891455 	370.000000	0.0896611 	370.000000	0.0903276 	370.000000	2.27594e-05	
380.000000	0.0911379 	380.000000	0.0891809 	380.000000	0.088496  	380.000000	0.0879878 	380.000000	0.0885    	380.000000	0.0891587 	380.000000	2.22064e-05	
390.000000	0.089962  	390.000000	0.0880718 	390.000000	0.0873978 	390.000000	0.0868905 	390.000000	0.0873996 	390.000000	0.0880501 	390.000000	2.16806e-05	
400.000000	0.0888437 	400.000000	0.0870185 	400.000000	0.0863551 	400.000000	0.0858493 	400.000000	0.0863555 	400.000000	0.0869973 	400.000000	2.11801e-05	
410.000000	0.087779  	410.000000	0.086017  	410.000000	0.0853637 	410.000000	0.08486   	410.000000	0.0853633 	410.000000	0.0859963 	410.000000	2.07029e-05	
