Energy (MeV/u)1	0 - [He-base] F.Hubert et al, AD&ND Tables 46(1990)1	Energy (MeV/u)2	1 - [H -base] J.F.Ziegler et al,Pergamon Press,NY(low energy)	Energy (MeV/u)3	2 - ATIMA 1.2 LS-theory (recommended for high energy)	Energy (MeV/u)4	3 - ATIMA 1.2 without LS-correction	Energy (MeV/u)5	4 - ATIMA 1.4 H.Weick, improved mean charge formula for HI	Energy (MeV/u)6	5 - electrical component of [1] - J.F.Ziegler et al	Energy (MeV/u)7	6 - nuclear component of [1] - J.F.Ziegler et al	
0.001000	0.206423  	0.001000	0.0397292 	0.001000	0.0385511 	0.001000	0.0385511 	0.001000	0.0385246 	0.001000	0.0355609 	0.001000	0.00416838	
0.002000	0.24593   	0.002000	0.0524719 	0.002000	0.0508626 	0.002000	0.0508626 	0.002000	0.0508411 	0.002000	0.0485776 	0.002000	0.00389437	
0.005000	0.32298   	0.005000	0.0764452 	0.005000	0.0740145 	0.005000	0.0740145 	0.005000	0.0740013 	0.005000	0.0733684 	0.005000	0.00307689	
0.008000	0.375814  	0.008000	0.0932069 	0.008000	0.0902036 	0.008000	0.0902036 	0.008000	0.0901941 	0.008000	0.090649  	0.008000	0.00255798	
0.010000	0.40462   	0.010000	0.102535  	0.010000	0.0992145 	0.010000	0.0992145 	0.010000	0.0992066 	0.010000	0.100224  	0.010000	0.00231096	
0.015000	0.488016  	0.015000	0.11826   	0.015000	0.118183  	0.015000	0.118183  	0.015000	0.118177  	0.015000	0.116378  	0.015000	0.00188229	
0.020000	0.556346  	0.020000	0.13081   	0.020000	0.133978  	0.020000	0.133978  	0.020000	0.133973  	0.020000	0.129206  	0.020000	0.00160371	
0.025000	0.612858  	0.025000	0.141233  	0.025000	0.147763  	0.025000	0.147763  	0.025000	0.147759  	0.025000	0.139827  	0.025000	0.00140582	
0.030000	0.659287  	0.030000	0.150075  	0.030000	0.154856  	0.030000	0.154856  	0.030000	0.154853  	0.030000	0.148818  	0.030000	0.00125684	
0.035000	0.696776  	0.035000	0.157666  	0.035000	0.160936  	0.035000	0.160936  	0.035000	0.160933  	0.035000	0.156526  	0.035000	0.00113998	
0.040000	0.726226  	0.040000	0.164229  	0.040000	0.166196  	0.040000	0.166196  	0.040000	0.166193  	0.040000	0.163184  	0.040000	0.00104548	
0.045000	0.748445  	0.045000	0.169925  	0.045000	0.170772  	0.045000	0.170772  	0.045000	0.17077   	0.045000	0.168957  	0.045000	0.000967241	
0.050000	0.764212  	0.050000	0.174874  	0.050000	0.174766  	0.050000	0.174766  	0.050000	0.174764  	0.050000	0.173973  	0.050000	0.000901234	
0.055000	0.774294  	0.055000	0.179173  	0.055000	0.178256  	0.055000	0.178256  	0.055000	0.178255  	0.055000	0.178328  	0.055000	0.000844689	
0.060000	0.779447  	0.060000	0.182898  	0.060000	0.181305  	0.060000	0.181305  	0.060000	0.181304  	0.060000	0.182102  	0.060000	0.000795627	
0.070000	0.777842  	0.070000	0.188878  	0.070000	0.186274  	0.070000	0.186274  	0.070000	0.186273  	0.070000	0.188164  	0.070000	0.000714507	
0.080000	0.764696  	0.080000	0.193221  	0.080000	0.189984  	0.080000	0.189984  	0.080000	0.189983  	0.080000	0.192577  	0.080000	0.00064395	
0.090000	0.744373  	0.090000	0.196251  	0.090000	0.192682  	0.090000	0.192682  	0.090000	0.192681  	0.090000	0.195659  	0.090000	0.000591859	
0.100000	0.720179  	0.100000	0.198206  	0.100000	0.194541  	0.100000	0.194541  	0.100000	0.19454   	0.100000	0.197657  	0.100000	0.00054834	
0.120000	0.668683  	0.120000	0.199644  	0.120000	0.196284  	0.120000	0.196284  	0.120000	0.196283  	0.120000	0.199165  	0.120000	0.000479542	
0.140000	0.620388  	0.140000	0.198726  	0.140000	0.196071  	0.140000	0.196071  	0.140000	0.196071  	0.140000	0.198299  	0.140000	0.000427408	
0.160000	0.578462  	0.160000	0.196266  	0.160000	0.194495  	0.160000	0.194495  	0.160000	0.194494  	0.160000	0.195879  	0.160000	0.000386392	
0.180000	0.543039  	0.180000	0.192827  	0.180000	0.191978  	0.180000	0.191978  	0.180000	0.191977  	0.180000	0.192474  	0.180000	0.000353189	
0.200000	0.513233  	0.200000	0.188803  	0.200000	0.188827  	0.200000	0.188827  	0.200000	0.188827  	0.200000	0.188477  	0.200000	0.000325703	
0.250000	0.45663   	0.250000	0.17775   	0.250000	0.179506  	0.250000	0.179506  	0.250000	0.179506  	0.250000	0.177476  	0.250000	0.000273835	
0.300000	0.416269  	0.300000	0.166839  	0.300000	0.169615  	0.300000	0.169615  	0.300000	0.169614  	0.300000	0.166602  	0.300000	0.000237232	
0.350000	0.385279  	0.350000	0.156874  	0.350000	0.160099  	0.350000	0.160099  	0.350000	0.160099  	0.350000	0.156664  	0.350000	0.000209891	
0.400000	0.360148  	0.400000	0.148033  	0.400000	0.151333  	0.400000	0.151333  	0.400000	0.151333  	0.400000	0.147844  	0.400000	0.000188618	
0.450000	0.338997  	0.450000	0.140259  	0.450000	0.143416  	0.450000	0.143416  	0.450000	0.143416  	0.450000	0.140087  	0.450000	0.000171553	
0.500000	0.320742  	0.500000	0.133422  	0.500000	0.136326  	0.500000	0.136326  	0.500000	0.136326  	0.500000	0.133265  	0.500000	0.000157531	
0.600000	0.290438  	0.600000	0.122019  	0.600000	0.124322  	0.600000	0.124322  	0.600000	0.124322  	0.600000	0.121883  	0.600000	0.000135794	
0.700000	0.266013  	0.700000	0.112897  	0.700000	0.114651  	0.700000	0.114651  	0.700000	0.114651  	0.700000	0.112777  	0.700000	0.000119669	
0.800000	0.245754  	0.800000	0.105409  	0.800000	0.106726  	0.800000	0.106726  	0.800000	0.106726  	0.800000	0.105302  	0.800000	0.000107193	
0.900000	0.228612  	0.900000	0.0991219 	0.900000	0.100111  	0.900000	0.100111  	0.900000	0.100111  	0.900000	0.0990247 	0.900000	9.72283e-05	
1.000000	0.213886  	1.000000	0.0937446 	1.000000	0.0944924 	1.000000	0.0944924 	1.000000	0.0944923 	1.000000	0.0936555 	1.000000	8.90721e-05	
1.250000	0.184698  	1.250000	0.0830907 	1.250000	0.0834848 	1.250000	0.0834848 	1.250000	0.0834848 	1.250000	0.0830168 	1.250000	7.39121e-05	
1.500000	0.162953  	1.500000	0.0750895 	1.500000	0.0753229 	1.500000	0.0753229 	1.500000	0.0753228 	1.500000	0.0750261 	1.500000	6.34007e-05	
1.750000	0.146074  	1.750000	0.0687939 	1.750000	0.0689524 	1.750000	0.0689524 	1.750000	0.0689524 	1.750000	0.0687383 	1.750000	5.56533e-05	
2.000000	0.13256   	2.000000	0.0636757 	2.000000	0.063798  	2.000000	0.063798  	2.000000	0.063798  	2.000000	0.063626  	2.000000	4.96894e-05	
2.250000	0.121479  	2.250000	0.0594122 	2.250000	0.0595159 	2.250000	0.0595159 	2.250000	0.0595159 	2.250000	0.0593672 	2.250000	4.49467e-05	
2.500000	0.11173   	2.500000	0.0557926 	2.500000	0.0558861 	2.500000	0.0558861 	2.500000	0.0558861 	2.500000	0.0557516 	2.500000	4.10787e-05	
3.000000	0.0975606 	3.000000	0.04995   	3.000000	0.0500316 	3.000000	0.0500316 	3.000000	0.0500316 	3.000000	0.0499148 	3.000000	3.51359e-05	
3.500000	0.0868065 	3.500000	0.0454112 	3.500000	0.0454837 	3.500000	0.0454837 	3.500000	0.0454837 	3.500000	0.0453805 	3.500000	3.07714e-05	
4.000000	0.0783425 	4.000000	0.0417642 	4.000000	0.0418273 	4.000000	0.0418273 	4.000000	0.0418273 	4.000000	0.0417368 	4.000000	2.74214e-05	
4.500000	0.0714933 	4.500000	0.0387575 	4.500000	0.0388107 	4.500000	0.0388107 	4.500000	0.0388107 	4.500000	0.0387327 	4.500000	2.47637e-05	
5.000000	0.0658281 	5.000000	0.0362283 	5.000000	0.0362713 	5.000000	0.0362713 	5.000000	0.0362713 	5.000000	0.0362057 	5.000000	2.26007e-05	
5.500000	0.0610583 	5.500000	0.0340658 	5.500000	0.0340987 	5.500000	0.0340987 	5.500000	0.0340987 	5.500000	0.034045  	5.500000	2.08038e-05	
6.000000	0.056983  	6.000000	0.0321919 	6.000000	0.0322149 	6.000000	0.0322149 	6.000000	0.0322149 	6.000000	0.0321726 	6.000000	1.92858e-05	
6.500000	0.0534578 	6.500000	0.0305496 	6.500000	0.0305631 	6.500000	0.0305631 	6.500000	0.0305631 	6.500000	0.0305316 	6.500000	1.79853e-05	
7.000000	0.0503763 	7.000000	0.0290963 	7.000000	0.0291008 	7.000000	0.0291008 	7.000000	0.0291008 	7.000000	0.0290794 	7.000000	1.68581e-05	
7.500000	0.0476579 	7.500000	0.0277995 	7.500000	0.0277956 	7.500000	0.0277956 	7.500000	0.0277956 	7.500000	0.0277837 	7.500000	1.5871e-05	
8.000000	0.0452408 	8.000000	0.0266341 	8.000000	0.0266222 	8.000000	0.0266222 	8.000000	0.0266222 	8.000000	0.0266191 	8.000000	1.4999e-05	
8.500000	0.0430766 	8.500000	0.02558   	8.500000	0.0255606 	8.500000	0.0255606 	8.500000	0.0255606 	8.500000	0.0255658 	8.500000	1.42228e-05	
9.000000	0.0411268 	9.000000	0.0246211 	9.000000	0.0245948 	9.000000	0.0245948 	9.000000	0.0245948 	9.000000	0.0246076 	9.000000	1.35271e-05	
9.500000	0.0393604 	9.500000	0.0237445 	9.500000	0.0237118 	9.500000	0.0237118 	9.500000	0.0237118 	9.500000	0.0237316 	9.500000	1.28997e-05	
10.000000	0.0377522 	10.000000	0.0230947 	10.000000	0.0229007 	10.000000	0.0229007 	10.000000	0.0229007 	10.000000	0.0230824 	10.000000	1.2331e-05	
11.000000	0.0349308 	11.000000	0.0217433 	11.000000	0.0214776 	11.000000	0.0214778 	11.000000	0.0214751 	11.000000	0.021732  	11.000000	1.13389e-05	
12.000000	0.0325348 	12.000000	0.0205412 	12.000000	0.0202435 	12.000000	0.0202441 	12.000000	0.0202416 	12.000000	0.0205307 	12.000000	1.05018e-05	
13.000000	0.030473  	13.000000	0.0194679 	13.000000	0.0191614 	13.000000	0.0191618 	13.000000	0.0191602 	13.000000	0.0194581 	13.000000	9.78549e-06	
14.000000	0.0286789 	14.000000	0.0185053 	14.000000	0.0182032 	14.000000	0.0182032 	14.000000	0.0182023 	14.000000	0.0184961 	14.000000	9.16524e-06	
15.000000	0.0271027 	15.000000	0.017638  	15.000000	0.0173469 	15.000000	0.0173469 	15.000000	0.0173467 	15.000000	0.0176294 	15.000000	8.62262e-06	
16.000000	0.0257062 	16.000000	0.0168532 	16.000000	0.0165769 	16.000000	0.0165766 	16.000000	0.0165768 	16.000000	0.0168451 	16.000000	8.14368e-06	
17.000000	0.0244599 	17.000000	0.0161399 	17.000000	0.0158803 	17.000000	0.0158792 	17.000000	0.0158797 	17.000000	0.0161322 	17.000000	7.71767e-06	
18.000000	0.0233404 	18.000000	0.015489  	18.000000	0.0152457 	18.000000	0.0152441 	18.000000	0.015245  	18.000000	0.0154816 	18.000000	7.33612e-06	
19.000000	0.0223288 	19.000000	0.0148926 	19.000000	0.0146638 	19.000000	0.0146623 	19.000000	0.0146634 	19.000000	0.0148857 	19.000000	6.99233e-06	
20.000000	0.0214101 	20.000000	0.0143444 	20.000000	0.0141295 	20.000000	0.0141279 	20.000000	0.0141294 	20.000000	0.0143378 	20.000000	6.68084e-06	
21.000000	0.0205717 	21.000000	0.0138388 	21.000000	0.0136363 	21.000000	0.0136346 	21.000000	0.0136363 	21.000000	0.0138324 	21.000000	6.39726e-06	
22.000000	0.0198034 	22.000000	0.0133709 	22.000000	0.0131791 	22.000000	0.0131775 	22.000000	0.0131795 	22.000000	0.0133648 	22.000000	6.13791e-06	
23.000000	0.0190966 	23.000000	0.0129368 	23.000000	0.0127542 	23.000000	0.0127525 	23.000000	0.0127548 	23.000000	0.0129309 	23.000000	5.89979e-06	
24.000000	0.018444  	24.000000	0.0125328 	24.000000	0.0123584 	24.000000	0.0123561 	24.000000	0.0123587 	24.000000	0.0125271 	24.000000	5.68033e-06	
25.000000	0.0178395 	25.000000	0.012156  	25.000000	0.0119887 	25.000000	0.0119853 	25.000000	0.0119882 	25.000000	0.0121505 	25.000000	5.4774e-06	
27.000000	0.0167548 	27.000000	0.0114734 	27.000000	0.0113151 	27.000000	0.0113108 	27.000000	0.0113142 	27.000000	0.0114683 	27.000000	5.11405e-06	
29.000000	0.0158086 	29.000000	0.0108716 	29.000000	0.0107165 	29.000000	0.0107123 	29.000000	0.0107162 	29.000000	0.0108668 	29.000000	4.79799e-06	
31.000000	0.0149756 	31.000000	0.0103369 	31.000000	0.0101909 	31.000000	0.0101867 	31.000000	0.0101909 	31.000000	0.0103324 	31.000000	4.52044e-06	
33.000000	0.0142362 	33.000000	0.00985863	33.000000	0.00972919	33.000000	0.00972519	33.000000	0.00972943	33.000000	0.00985436	33.000000	4.27464e-06	
35.000000	0.0135753 	35.000000	0.00942817	35.000000	0.00931343	35.000000	0.00930987	35.000000	0.00931413	35.000000	0.00942411	35.000000	4.05537e-06	
38.000000	0.0127051 	38.000000	0.00885744	38.000000	0.00876373	38.000000	0.00875893	38.000000	0.0087632 	38.000000	0.00885367	38.000000	3.76739e-06	
41.000000	0.0119535 	41.000000	0.00836089	41.000000	0.00828402	41.000000	0.00827907	41.000000	0.00828332	41.000000	0.00835737	41.000000	3.51929e-06	
44.000000	0.0112973 	44.000000	0.00792481	44.000000	0.00786154	44.000000	0.00785701	44.000000	0.00786124	44.000000	0.00792151	44.000000	3.3032e-06	
47.000000	0.0107192 	47.000000	0.00753867	47.000000	0.00748696	47.000000	0.00748267	47.000000	0.00748686	47.000000	0.00753556	47.000000	3.11322e-06	
50.000000	0.0102057 	50.000000	0.00719427	50.000000	0.00715222	50.000000	0.00714819	50.000000	0.00715233	50.000000	0.00719133	50.000000	2.94483e-06	
55.000000	0.00946597	55.000000	0.00669599	55.000000	0.00666678	55.000000	0.00666307	55.000000	0.00666713	55.000000	0.00669329	55.000000	2.70289e-06	
60.000000	0.00884144	60.000000	0.00627341	60.000000	0.00625405	60.000000	0.00625037	60.000000	0.00625435	60.000000	0.00627091	60.000000	2.49921e-06	
65.000000	0.00830663	65.000000	0.00591034	65.000000	0.00589906	65.000000	0.00589471	65.000000	0.0058986 	65.000000	0.00590801	65.000000	2.32527e-06	
70.000000	0.00784316	70.000000	0.00559491	70.000000	0.00558878	70.000000	0.00558483	70.000000	0.00558864	70.000000	0.00559273	70.000000	2.17493e-06	
75.000000	0.00743736	75.000000	0.00531822	75.000000	0.00531599	75.000000	0.00531226	75.000000	0.00531599	75.000000	0.00531618	75.000000	2.04361e-06	
80.000000	0.00707889	80.000000	0.00507348	80.000000	0.00507407	80.000000	0.00507055	80.000000	0.00507421	80.000000	0.00507156	80.000000	1.92788e-06	
85.000000	0.00675975	85.000000	0.00485541	85.000000	0.004858  	85.000000	0.00485466	85.000000	0.00485825	85.000000	0.00485359	85.000000	1.82508e-06	
90.000000	0.00647368	90.000000	0.00465984	90.000000	0.0046638 	90.000000	0.0046606 	90.000000	0.00466412	90.000000	0.0046581 	90.000000	1.73313e-06	
95.000000	0.00621567	95.000000	0.00448341	95.000000	0.00448897	95.000000	0.00448517	95.000000	0.00448863	95.000000	0.00448176	95.000000	1.65037e-06	
100.000000	0.0059817 	100.000000	0.00432342	100.000000	0.00432941	100.000000	0.00432578	100.000000	0.00432918	100.000000	0.00432185	100.000000	1.57548e-06	
105.000000	0.00576847	105.000000	0.00417766	105.000000	0.00418377	105.000000	0.0041803 	105.000000	0.00418364	105.000000	0.00417615	105.000000	1.50737e-06	
110.000000	0.0055733 	110.000000	0.00404429	110.000000	0.00405031	110.000000	0.00404696	110.000000	0.00405025	110.000000	0.00404285	110.000000	1.44514e-06	
115.000000	0.00539391	115.000000	0.00392179	115.000000	0.00392751	115.000000	0.00392429	115.000000	0.00392753	115.000000	0.0039204 	115.000000	1.38806e-06	
120.000000	0.00522843	120.000000	0.00380886	120.000000	0.00381415	120.000000	0.00381105	120.000000	0.00381424	120.000000	0.00380753	120.000000	1.33549e-06	
125.000000	0.00507526	125.000000	0.00370443	125.000000	0.00370919	125.000000	0.00370617	125.000000	0.00370932	125.000000	0.00370314	125.000000	1.28693e-06	
130.000000	0.00493304	130.000000	0.00360755	130.000000	0.00361168	130.000000	0.00360877	130.000000	0.00361187	130.000000	0.00360631	130.000000	1.24192e-06	
135.000000	0.00480061	135.000000	0.00351743	135.000000	0.00352081	135.000000	0.00351805	135.000000	0.00352111	135.000000	0.00351623	135.000000	1.20008e-06	
140.000000	0.00467696	140.000000	0.00343339	140.000000	0.00343632	140.000000	0.00343336	140.000000	0.00343638	140.000000	0.00343223	140.000000	1.16108e-06	
145.000000	0.00456123	145.000000	0.00335482	145.000000	0.00335733	145.000000	0.0033541 	145.000000	0.00335708	145.000000	0.00335369	145.000000	1.12464e-06	
150.000000	0.00445266	150.000000	0.0032812 	150.000000	0.0032829 	150.000000	0.00327977	150.000000	0.00328272	150.000000	0.00328011	150.000000	1.09052e-06	
155.000000	0.00429979	155.000000	0.00321209	155.000000	0.00321294	155.000000	0.00320992	155.000000	0.00321283	155.000000	0.00321103	155.000000	1.05848e-06	
160.000000	0.00421019	160.000000	0.00314707	160.000000	0.00314712	160.000000	0.00314416	160.000000	0.00314704	160.000000	0.00314604	160.000000	1.02836e-06	
165.000000	0.00412569	165.000000	0.00308579	165.000000	0.00308502	165.000000	0.00308214	165.000000	0.00308498	165.000000	0.00308479	165.000000	9.99967e-07	
170.000000	0.00404587	170.000000	0.00302793	170.000000	0.00302636	170.000000	0.00302354	170.000000	0.00302636	170.000000	0.00302696	170.000000	9.73167e-07	
175.000000	0.00397035	175.000000	0.00297323	175.000000	0.00297085	175.000000	0.00296809	175.000000	0.00297088	175.000000	0.00297228	175.000000	9.47826e-07	
180.000000	0.00389877	180.000000	0.00292141	180.000000	0.00291825	180.000000	0.00291555	180.000000	0.00291831	180.000000	0.00292049	180.000000	9.23824e-07	
185.000000	0.00383084	185.000000	0.00287227	185.000000	0.00286834	185.000000	0.00286569	185.000000	0.00286843	185.000000	0.00287137	185.000000	9.01058e-07	
190.000000	0.00376628	190.000000	0.0028256 	190.000000	0.00282092	190.000000	0.00281832	190.000000	0.00282102	190.000000	0.00282472	190.000000	8.79433e-07	
195.000000	0.00370485	195.000000	0.00278121	195.000000	0.00277576	195.000000	0.00277324	195.000000	0.00277593	195.000000	0.00278036	195.000000	8.58864e-07	
200.000000	0.00364631	200.000000	0.00273895	200.000000	0.00273276	200.000000	0.0027303 	200.000000	0.00273297	200.000000	0.00273811	200.000000	8.39275e-07	
210.000000	0.00353714	210.000000	0.00266022	210.000000	0.00265301	210.000000	0.00265027	210.000000	0.00265289	210.000000	0.00265942	210.000000	8.02764e-07	
220.000000	0.00343736	220.000000	0.00258837	220.000000	0.00257992	220.000000	0.00257719	220.000000	0.00257977	220.000000	0.0025876 	220.000000	7.69419e-07	
230.000000	0.00334581	230.000000	0.00252254	230.000000	0.00251282	230.000000	0.0025102 	230.000000	0.00251274	230.000000	0.0025218 	230.000000	7.3884e-07	
240.000000	0.00326149	240.000000	0.002462  	240.000000	0.00245113	240.000000	0.00244858	240.000000	0.00245108	240.000000	0.00246129	240.000000	7.10692e-07	
250.000000	0.00318358	250.000000	0.00240614	250.000000	0.00239418	250.000000	0.00239171	250.000000	0.00239418	250.000000	0.00240546	250.000000	6.84692e-07	
260.000000	0.00311138	260.000000	0.00235446	260.000000	0.00234148	260.000000	0.00233907	260.000000	0.00234151	260.000000	0.00235379	260.000000	6.60601e-07	
270.000000	0.00304427	270.000000	0.00230649	270.000000	0.00229257	270.000000	0.00229022	270.000000	0.00229263	270.000000	0.00230585	270.000000	6.38213e-07	
280.000000	0.00298174	280.000000	0.00226186	280.000000	0.00224706	280.000000	0.00224477	280.000000	0.00224715	280.000000	0.00226124	280.000000	6.17351e-07	
290.000000	0.00292333	290.000000	0.00222023	290.000000	0.00220459	290.000000	0.00220238	290.000000	0.00220474	290.000000	0.00221963	290.000000	5.97862e-07	
300.000000	0.00286866	300.000000	0.00218132	300.000000	0.00216508	300.000000	0.00216276	300.000000	0.00216509	300.000000	0.00218074	300.000000	5.79613e-07	
310.000000	0.00281737	310.000000	0.00214487	310.000000	0.00212813	310.000000	0.00212566	310.000000	0.00212797	310.000000	0.00214431	310.000000	5.62489e-07	
320.000000	0.00276916	320.000000	0.00211067	320.000000	0.00209326	320.000000	0.00209085	320.000000	0.00209313	320.000000	0.00211012	320.000000	5.46387e-07	
330.000000	0.00272377	330.000000	0.0020785 	330.000000	0.00206047	330.000000	0.00205812	330.000000	0.00206038	330.000000	0.00207797	330.000000	5.31216e-07	
340.000000	0.00268096	340.000000	0.00204821	340.000000	0.00202962	340.000000	0.00202731	340.000000	0.00202955	340.000000	0.00204769	340.000000	5.16897e-07	
350.000000	0.00264051	350.000000	0.00201963	350.000000	0.00200052	350.000000	0.00199825	350.000000	0.00200048	350.000000	0.00201912	350.000000	5.0336e-07	
360.000000	0.00260225	360.000000	0.00199263	360.000000	0.00197304	360.000000	0.00197081	360.000000	0.00197302	360.000000	0.00199214	360.000000	4.90542e-07	
370.000000	0.002566  	370.000000	0.00196708	370.000000	0.00194705	370.000000	0.00194486	370.000000	0.00194705	370.000000	0.0019666 	370.000000	4.78385e-07	
380.000000	0.00253161	380.000000	0.00194288	380.000000	0.00192244	380.000000	0.00192028	380.000000	0.00192245	380.000000	0.00194241	380.000000	4.66839e-07	
390.000000	0.00249895	390.000000	0.00191991	390.000000	0.0018991 	390.000000	0.00189697	390.000000	0.00189913	390.000000	0.00191946	390.000000	4.5586e-07	
400.000000	0.00246788	400.000000	0.00189811	400.000000	0.00187695	400.000000	0.00187485	400.000000	0.00187699	400.000000	0.00189766	400.000000	4.45404e-07	
