Energy (MeV/u)1	0 - [He-base] F.Hubert et al, AD&ND Tables 46(1990)1	Energy (MeV/u)2	1 - [H -base] J.F.Ziegler et al,Pergamon Press,NY(low energy)	Energy (MeV/u)3	2 - ATIMA 1.2 LS-theory (recommended for high energy)	Energy (MeV/u)4	3 - ATIMA 1.2 without LS-correction	Energy (MeV/u)5	4 - ATIMA 1.4 H.Weick, improved mean charge formula for HI	Energy (MeV/u)6	5 - electrical component of [1] - J.F.Ziegler et al	Energy (MeV/u)7	6 - nuclear component of [1] - J.F.Ziegler et al	
0.001000	1.7879    	0.001000	1.62444   	0.001000	1.62125   	0.001000	1.62125   	0.001000	1.62132   	0.001000	0.880708  	0.001000	0.743736  	
0.002000	1.95347   	0.002000	1.72267   	0.002000	1.72106   	0.002000	1.72106   	0.002000	1.72111   	0.002000	1.154     	0.002000	0.568665  	
0.005000	2.36616   	0.005000	2.00362   	0.005000	2.0105    	0.005000	2.0105    	0.005000	2.01053   	0.005000	1.65105   	0.005000	0.352564  	
0.008000	2.69336   	0.008000	2.24905   	0.008000	2.26539   	0.008000	2.26539   	0.008000	2.2654    	0.008000	1.98487   	0.008000	0.264178  	
0.010000	2.88085   	0.010000	2.39487   	0.010000	2.41752   	0.010000	2.41752   	0.010000	2.41754   	0.010000	2.16643   	0.010000	0.228439  	
0.015000	3.35631   	0.015000	2.71061   	0.015000	2.74995   	0.015000	2.74995   	0.015000	2.74996   	0.015000	2.53751   	0.015000	0.173103  	
0.020000	3.73619   	0.020000	2.9786    	0.020000	3.08684   	0.020000	3.08684   	0.020000	3.08685   	0.020000	2.83814   	0.020000	0.140462  	
0.025000	4.15539   	0.025000	3.28783   	0.025000	3.41722   	0.025000	3.41722   	0.025000	3.41722   	0.025000	3.16871   	0.025000	0.119125  	
0.030000	4.51069   	0.030000	3.57934   	0.030000	3.70674   	0.030000	3.70674   	0.030000	3.70675   	0.030000	3.47526   	0.030000	0.104079  	
0.035000	4.80279   	0.035000	3.85317   	0.035000	3.98317   	0.035000	3.98317   	0.035000	3.98318   	0.035000	3.76048   	0.035000	0.0926941 	
0.040000	5.033     	0.040000	4.10961   	0.040000	4.24671   	0.040000	4.24671   	0.040000	4.24672   	0.040000	4.02586   	0.040000	0.0837479 	
0.045000	5.20377   	0.045000	4.34885   	0.045000	4.49759   	0.045000	4.49759   	0.045000	4.4976    	0.045000	4.27233   	0.045000	0.076513  	
0.050000	5.31857   	0.050000	4.57106   	0.050000	4.73602   	0.050000	4.73602   	0.050000	4.73603   	0.050000	4.50054   	0.050000	0.0705286 	
0.055000	5.55018   	0.055000	4.81583   	0.055000	4.96223   	0.055000	4.96223   	0.055000	4.96224   	0.055000	4.75034   	0.055000	0.0654876 	
0.060000	5.74746   	0.060000	5.04742   	0.060000	5.17648   	0.060000	5.17648   	0.060000	5.17649   	0.060000	4.98625   	0.060000	0.0611775 	
0.070000	6.04882   	0.070000	5.47126   	0.070000	5.57018   	0.070000	5.57018   	0.070000	5.57019   	0.070000	5.41708   	0.070000	0.0541798 	
0.080000	6.37217   	0.080000	5.83759   	0.080000	5.91957   	0.080000	5.91957   	0.080000	5.91958   	0.080000	5.78886   	0.080000	0.0487276 	
0.090000	6.62619   	0.090000	6.15789   	0.090000	6.2274    	0.090000	6.2274    	0.090000	6.22741   	0.090000	6.11354   	0.090000	0.0443486 	
0.100000	6.82993   	0.100000	6.44166   	0.100000	6.49669   	0.100000	6.49669   	0.100000	6.4967    	0.100000	6.40091   	0.100000	0.0407472 	
0.120000	6.95369   	0.120000	6.89847   	0.120000	6.93214   	0.120000	6.93214   	0.120000	6.93215   	0.120000	6.86332   	0.120000	0.0351578 	
0.140000	7.00287   	0.140000	7.21981   	0.140000	7.25078   	0.140000	7.25078   	0.140000	7.25078   	0.140000	7.18881   	0.140000	0.0310063 	
0.160000	7.02029   	0.160000	7.43132   	0.160000	7.47565   	0.160000	7.47565   	0.160000	7.47566   	0.160000	7.40353   	0.160000	0.0277906 	
0.180000	7.01882   	0.180000	7.54068   	0.180000	7.62688   	0.180000	7.62688   	0.180000	7.62689   	0.180000	7.51546   	0.180000	0.0252204 	
0.200000	7.03417   	0.200000	7.60536   	0.200000	7.72122   	0.200000	7.72122   	0.200000	7.72123   	0.200000	7.58225   	0.200000	0.0231151 	
0.250000	6.9058    	0.250000	7.6075    	0.250000	7.79046   	0.250000	7.79046   	0.250000	7.79046   	0.250000	7.5883    	0.250000	0.0191981 	
0.300000	6.93417   	0.300000	7.64691   	0.300000	7.72532   	0.300000	7.72532   	0.300000	7.72532   	0.300000	7.63043   	0.300000	0.0164791 	
0.350000	6.98614   	0.350000	7.67944   	0.350000	7.6008    	0.350000	7.6008    	0.350000	7.60081   	0.350000	7.66497   	0.350000	0.0144734 	
0.400000	6.97394   	0.400000	7.63678   	0.400000	7.46504   	0.400000	7.46504   	0.400000	7.46504   	0.400000	7.62385   	0.400000	0.0129283 	
0.450000	6.93545   	0.450000	7.57429   	0.450000	7.37331   	0.450000	7.37331   	0.450000	7.37332   	0.450000	7.56259   	0.450000	0.0116988 	
0.500000	6.91602   	0.500000	7.54562   	0.500000	7.26511   	0.500000	7.26511   	0.500000	7.26512   	0.500000	7.53493   	0.500000	0.0106956 	
0.600000	6.6087    	0.600000	7.3018    	0.600000	7.03164   	0.600000	7.03164   	0.600000	7.03165   	0.600000	7.29264   	0.600000	0.00915339	
0.700000	6.26348   	0.700000	7.05692   	0.700000	6.78097   	0.700000	6.78097   	0.700000	6.78097   	0.700000	7.0489    	0.700000	0.00801996	
0.800000	6.13024   	0.800000	6.80919   	0.800000	6.54226   	0.800000	6.54226   	0.800000	6.54226   	0.800000	6.80204   	0.800000	0.00714949	
0.900000	5.98304   	0.900000	6.56692   	0.900000	6.32061   	0.900000	6.32061   	0.900000	6.32062   	0.900000	6.56046   	0.900000	0.00645863	
1.000000	5.82829   	1.000000	6.33132   	1.000000	6.11399   	1.000000	6.11399   	1.000000	6.114     	1.000000	6.32543   	1.000000	0.00589611	
1.250000	5.38646   	1.250000	5.88328   	1.250000	5.64362   	1.250000	5.64362   	1.250000	5.64362   	1.250000	5.87842   	1.250000	0.00485809	
1.500000	4.93154   	1.500000	5.42497   	1.500000	5.22272   	1.500000	5.22272   	1.500000	5.22272   	1.500000	5.42082   	1.500000	0.00414456	
1.750000	4.54334   	1.750000	5.04026   	1.750000	4.86822   	1.750000	4.86822   	1.750000	4.86822   	1.750000	5.03663   	1.750000	0.00362216	
2.000000	4.18214   	2.000000	4.67974   	2.000000	4.5617    	2.000000	4.5617    	2.000000	4.5617    	2.000000	4.67652   	2.000000	0.0032222 	
2.250000	3.8817    	2.250000	4.34814   	2.250000	4.29256   	2.250000	4.29256   	2.250000	4.29256   	2.250000	4.34524   	2.250000	0.00290558	
2.500000	3.61506   	2.500000	4.06898   	2.500000	4.05382   	2.500000	4.05382   	2.500000	4.05382   	2.500000	4.06633   	2.500000	0.00264836	
3.000000	3.22152   	3.000000	3.61906   	3.000000	3.64857   	3.000000	3.64857   	3.000000	3.64857   	3.000000	3.61681   	3.000000	0.00225504	
3.500000	2.90887   	3.500000	3.26587   	3.500000	3.31763   	3.500000	3.31763   	3.500000	3.31763   	3.500000	3.2639    	3.500000	0.00196773	
4.000000	2.65443   	4.000000	2.9802    	4.000000	3.04253   	4.000000	3.04253   	4.000000	3.04253   	4.000000	2.97845   	4.000000	0.00174817	
4.500000	2.44324   	4.500000	2.74344   	4.500000	2.81042   	4.500000	2.81042   	4.500000	2.81042   	4.500000	2.74187   	4.500000	0.00157463	
5.000000	2.26502   	5.000000	2.54323   	5.000000	2.61205   	5.000000	2.61205   	5.000000	2.61206   	5.000000	2.54179   	5.000000	0.00143384	
5.500000	2.11254   	5.500000	2.37365   	5.500000	2.44063   	5.500000	2.44063   	5.500000	2.44063   	5.500000	2.37234   	5.500000	0.0013172 	
6.000000	1.98053   	6.000000	2.2263    	6.000000	2.29101   	6.000000	2.29101   	6.000000	2.29102   	6.000000	2.22508   	6.000000	0.0012189 	
6.500000	1.86508   	6.500000	2.09695   	6.500000	2.15931   	6.500000	2.15931   	6.500000	2.15931   	6.500000	2.09582   	6.500000	0.00113488	
7.000000	1.76322   	7.000000	1.98244   	7.000000	2.04247   	7.000000	2.04247   	7.000000	2.04247   	7.000000	1.98138   	7.000000	0.00106219	
7.500000	1.67266   	7.500000	1.88032   	7.500000	1.9381    	7.500000	1.9381    	7.500000	1.9381    	7.500000	1.87932   	7.500000	0.000998657	
8.000000	1.59158   	8.000000	1.78865   	8.000000	1.84431   	8.000000	1.84431   	8.000000	1.84431   	8.000000	1.78771   	8.000000	0.000942623	
8.500000	1.51855   	8.500000	1.70588   	8.500000	1.75954   	8.500000	1.75954   	8.500000	1.75954   	8.500000	1.70499   	8.500000	0.000892816	
9.000000	1.45241   	9.000000	1.63078   	9.000000	1.68255   	9.000000	1.68255   	9.000000	1.68255   	9.000000	1.62993   	9.000000	0.000848239	
9.500000	1.39222   	9.500000	1.5623    	9.500000	1.6123    	9.500000	1.6123    	9.500000	1.6123    	9.500000	1.56149   	9.500000	0.000808097	
10.000000	1.33719   	10.000000	1.54549   	10.000000	1.54794   	10.000000	1.54794   	10.000000	1.54794   	10.000000	1.54472   	10.000000	0.000771749	
11.000000	1.24016   	11.000000	1.43453   	11.000000	1.43279   	11.000000	1.43376   	11.000000	1.43283   	11.000000	1.43382   	11.000000	0.000708444	
12.000000	1.15727   	12.000000	1.33923   	12.000000	1.33436   	12.000000	1.33597   	12.000000	1.33429   	12.000000	1.33857   	12.000000	0.000655143	
13.000000	1.0856    	13.000000	1.2565    	13.000000	1.24929   	13.000000	1.25132   	13.000000	1.24905   	13.000000	1.25589   	13.000000	0.000609617	
14.000000	1.02299   	14.000000	1.184     	14.000000	1.17505   	14.000000	1.17734   	14.000000	1.17463   	14.000000	1.18342   	14.000000	0.00057026	
15.000000	0.967789  	15.000000	1.11994   	15.000000	1.10971   	15.000000	1.11218   	15.000000	1.10911   	15.000000	1.1194    	15.000000	0.000535881	
16.000000	0.918748  	16.000000	1.06292   	16.000000	1.05181   	16.000000	1.05435   	16.000000	1.05103   	16.000000	1.06241   	16.000000	0.00050558	
17.000000	0.874874  	17.000000	1.01184   	17.000000	1.00017   	17.000000	1.00272   	17.000000	0.999202  	17.000000	1.01136   	17.000000	0.00047866	
18.000000	0.835377  	18.000000	0.965807  	18.000000	0.953816  	18.000000	0.956359  	18.000000	0.95269   	18.000000	0.965352  	18.000000	0.00045458	
19.000000	0.799626  	19.000000	0.924109  	19.000000	0.91199   	19.000000	0.914513  	19.000000	0.910744  	19.000000	0.923676  	19.000000	0.000432906	
20.000000	0.767103  	20.000000	0.886155  	20.000000	0.874109  	20.000000	0.876571  	20.000000	0.872741  	20.000000	0.885741  	20.000000	0.000413289	
21.000000	0.737382  	21.000000	0.851458  	21.000000	0.839657  	21.000000	0.842027  	21.000000	0.838155  	21.000000	0.851063  	21.000000	0.000395447	
22.000000	0.710112  	22.000000	0.819614  	22.000000	0.808185  	22.000000	0.810459  	22.000000	0.806574  	22.000000	0.819235  	22.000000	0.000379144	
23.000000	0.684997  	23.000000	0.790282  	23.000000	0.779329  	23.000000	0.781512  	23.000000	0.777627  	23.000000	0.789918  	23.000000	0.000364189	
24.000000	0.661786  	24.000000	0.763172  	24.000000	0.752787  	24.000000	0.754885  	24.000000	0.751018  	24.000000	0.762822  	24.000000	0.000350417	
25.000000	0.640267  	25.000000	0.738039  	25.000000	0.728308  	25.000000	0.730324  	25.000000	0.726483  	25.000000	0.737702  	25.000000	0.000337692	
27.000000	0.601606  	27.000000	0.692891  	27.000000	0.684719  	27.000000	0.686547  	27.000000	0.682786  	27.000000	0.692576  	27.000000	0.000314932	
29.000000	0.567839  	29.000000	0.653471  	29.000000	0.647161  	29.000000	0.648758  	29.000000	0.645099  	29.000000	0.653176  	29.000000	0.000295162	
31.000000	0.538078  	31.000000	0.618743  	31.000000	0.613859  	31.000000	0.615167  	31.000000	0.611792  	31.000000	0.618465  	31.000000	0.000277821	
33.000000	0.511639  	33.000000	0.587908  	33.000000	0.583715  	33.000000	0.584757  	33.000000	0.581786  	33.000000	0.587645  	33.000000	0.000262482	
35.000000	0.487986  	35.000000	0.560339  	35.000000	0.556747  	35.000000	0.557556  	35.000000	0.554926  	35.000000	0.56009   	35.000000	0.000248813	
38.000000	0.456822  	38.000000	0.524047  	38.000000	0.521212  	38.000000	0.521725  	38.000000	0.519515  	38.000000	0.523816  	38.000000	0.000230882	
41.000000	0.429883  	41.000000	0.492707  	41.000000	0.490499  	41.000000	0.490757  	41.000000	0.488884  	41.000000	0.492492  	41.000000	0.000215454	
44.000000	0.406349  	44.000000	0.46536   	44.000000	0.463601  	44.000000	0.46371   	44.000000	0.462111  	44.000000	0.465158  	44.000000	0.000202033	
47.000000	0.385603  	47.000000	0.44128   	47.000000	0.439925  	47.000000	0.439872  	47.000000	0.4385    	47.000000	0.44109   	47.000000	0.000190248	
50.000000	0.367168  	50.000000	0.419908  	50.000000	0.418878  	50.000000	0.418696  	50.000000	0.417515  	50.000000	0.419728  	50.000000	0.000179812	
55.000000	0.340603  	55.000000	0.389159  	55.000000	0.388504  	55.000000	0.388194  	55.000000	0.387265  	55.000000	0.388994  	55.000000	0.000164836	
60.000000	0.318163  	60.000000	0.363237  	60.000000	0.362852  	60.000000	0.362445  	60.000000	0.361712  	60.000000	0.363085  	60.000000	0.000152247	
65.000000	0.298941  	65.000000	0.341078  	65.000000	0.340858  	65.000000	0.340406  	65.000000	0.339826  	65.000000	0.340936  	65.000000	0.00014151	
70.000000	0.282278  	70.000000	0.321908  	70.000000	0.321854  	70.000000	0.321318  	70.000000	0.320861  	70.000000	0.321776  	70.000000	0.000132239	
75.000000	0.267685  	75.000000	0.305156  	75.000000	0.305173  	75.000000	0.304618  	75.000000	0.304261  	75.000000	0.305032  	75.000000	0.000124151	
80.000000	0.254792  	80.000000	0.290386  	80.000000	0.290485  	80.000000	0.289881  	80.000000	0.289607  	80.000000	0.290269  	80.000000	0.00011703	
85.000000	0.243313  	85.000000	0.277263  	85.000000	0.277386  	85.000000	0.276774  	85.000000	0.276569  	85.000000	0.277152  	85.000000	0.00011071	
90.000000	0.233021  	90.000000	0.265522  	90.000000	0.265691  	90.000000	0.26504   	90.000000	0.264892  	90.000000	0.265417  	90.000000	0.000105061	
95.000000	0.223739  	95.000000	0.254955  	95.000000	0.255123  	95.000000	0.25447   	95.000000	0.254372  	95.000000	0.254855  	95.000000	9.99821e-05	
100.000000	0.21532   	100.000000	0.245392  	100.000000	0.245552  	100.000000	0.244899  	100.000000	0.244843  	100.000000	0.245296  	100.000000	9.53888e-05	
105.000000	0.207647  	105.000000	0.236695  	105.000000	0.236841  	105.000000	0.236189  	105.000000	0.236169  	105.000000	0.236604  	105.000000	9.1214e-05	
110.000000	0.200624  	110.000000	0.22875   	110.000000	0.228905  	110.000000	0.228229  	110.000000	0.228241  	110.000000	0.228663  	110.000000	8.74024e-05	
115.000000	0.194168  	115.000000	0.221464  	115.000000	0.221608  	115.000000	0.220925  	115.000000	0.220964  	115.000000	0.22138   	115.000000	8.39081e-05	
120.000000	0.188213  	120.000000	0.214756  	120.000000	0.214877  	120.000000	0.214199  	120.000000	0.214262  	120.000000	0.214676  	120.000000	8.06925e-05	
125.000000	0.1827    	125.000000	0.208561  	125.000000	0.20866   	125.000000	0.207983  	125.000000	0.208067  	125.000000	0.208483  	125.000000	7.77231e-05	
130.000000	0.177582  	130.000000	0.20282   	130.000000	0.202897  	130.000000	0.202223  	130.000000	0.202326  	130.000000	0.202745  	130.000000	7.49724e-05	
135.000000	0.172815  	135.000000	0.197486  	135.000000	0.19754   	135.000000	0.196868  	135.000000	0.196988  	135.000000	0.197414  	135.000000	7.24168e-05	
140.000000	0.168365  	140.000000	0.192516  	140.000000	0.192548  	140.000000	0.191879  	140.000000	0.192014  	140.000000	0.192446  	140.000000	7.00359e-05	
145.000000	0.164199  	145.000000	0.187874  	145.000000	0.187884  	145.000000	0.187218  	145.000000	0.187366  	145.000000	0.187807  	145.000000	6.78123e-05	
150.000000	0.160291  	150.000000	0.183529  	150.000000	0.183518  	150.000000	0.182853  	150.000000	0.183014  	150.000000	0.183463  	150.000000	6.57307e-05	
155.000000	0.154789  	155.000000	0.179453  	155.000000	0.17942   	155.000000	0.178759  	155.000000	0.17893   	155.000000	0.179389  	155.000000	6.37777e-05	
160.000000	0.151563  	160.000000	0.175621  	160.000000	0.175568  	160.000000	0.174909  	160.000000	0.17509   	160.000000	0.175559  	160.000000	6.19416e-05	
165.000000	0.148522  	165.000000	0.172011  	165.000000	0.17194   	165.000000	0.171283  	165.000000	0.171473  	165.000000	0.171951  	165.000000	6.02121e-05	
170.000000	0.145649  	170.000000	0.168606  	170.000000	0.168516  	170.000000	0.167862  	170.000000	0.16806   	170.000000	0.168548  	170.000000	5.85801e-05	
175.000000	0.14293   	175.000000	0.165388  	175.000000	0.165281  	175.000000	0.164629  	175.000000	0.164835  	175.000000	0.165331  	175.000000	5.70374e-05	
180.000000	0.140354  	180.000000	0.162343  	180.000000	0.162218  	180.000000	0.161569  	180.000000	0.161782  	180.000000	0.162287  	180.000000	5.55768e-05	
185.000000	0.137908  	185.000000	0.159455  	185.000000	0.159315  	185.000000	0.158669  	185.000000	0.158887  	185.000000	0.159401  	185.000000	5.41919e-05	
190.000000	0.135585  	190.000000	0.156715  	190.000000	0.156559  	190.000000	0.155916  	190.000000	0.156139  	190.000000	0.156662  	190.000000	5.28768e-05	
195.000000	0.133373  	195.000000	0.154109  	195.000000	0.15394   	195.000000	0.153299  	195.000000	0.153528  	195.000000	0.154058  	195.000000	5.16264e-05	
200.000000	0.131266  	200.000000	0.15163   	200.000000	0.151447  	200.000000	0.150809  	200.000000	0.151042  	200.000000	0.15158   	200.000000	5.04358e-05	
210.000000	0.127336  	210.000000	0.147014  	210.000000	0.146807  	210.000000	0.146173  	210.000000	0.146415  	210.000000	0.146966  	210.000000	4.82179e-05	
220.000000	0.123744  	220.000000	0.142805  	220.000000	0.142576  	220.000000	0.141947  	220.000000	0.142196  	220.000000	0.142759  	220.000000	4.61935e-05	
230.000000	0.120448  	230.000000	0.138951  	230.000000	0.138704  	230.000000	0.138079  	230.000000	0.138335  	230.000000	0.138906  	230.000000	4.43379e-05	
240.000000	0.117413  	240.000000	0.135409  	240.000000	0.135146  	240.000000	0.134526  	240.000000	0.134787  	240.000000	0.135366  	240.000000	4.26308e-05	
250.000000	0.114608  	250.000000	0.132143  	250.000000	0.131869  	250.000000	0.131252  	250.000000	0.131517  	250.000000	0.132102  	250.000000	4.10547e-05	
260.000000	0.112009  	260.000000	0.129122  	260.000000	0.128831  	260.000000	0.128224  	260.000000	0.128493  	260.000000	0.129083  	260.000000	3.9595e-05	
270.000000	0.109593  	270.000000	0.126321  	270.000000	0.12601   	270.000000	0.125418  	270.000000	0.12569   	270.000000	0.126282  	270.000000	3.82391e-05	
280.000000	0.107342  	280.000000	0.123715  	280.000000	0.123399  	280.000000	0.122809  	280.000000	0.123084  	280.000000	0.123678  	280.000000	3.69762e-05	
290.000000	0.10524   	290.000000	0.121286  	290.000000	0.120965  	290.000000	0.120378  	290.000000	0.120656  	290.000000	0.12125   	290.000000	3.57968e-05	
300.000000	0.103271  	300.000000	0.119016  	300.000000	0.118691  	300.000000	0.118108  	300.000000	0.118388  	300.000000	0.118981  	300.000000	3.4693e-05	
310.000000	0.101425  	310.000000	0.11689   	310.000000	0.116564  	310.000000	0.115984  	310.000000	0.116265  	310.000000	0.116856  	310.000000	3.36575e-05	
320.000000	0.0996896 	320.000000	0.114896  	320.000000	0.114569  	320.000000	0.113992  	320.000000	0.114275  	320.000000	0.114863  	320.000000	3.26842e-05	
330.000000	0.0980555 	330.000000	0.113021  	330.000000	0.112695  	330.000000	0.11212   	330.000000	0.112405  	330.000000	0.112989  	330.000000	3.17675e-05	
340.000000	0.0965143 	340.000000	0.111256  	340.000000	0.110932  	340.000000	0.11036   	340.000000	0.110646  	340.000000	0.111225  	340.000000	3.09027e-05	
350.000000	0.0950584 	350.000000	0.109591  	350.000000	0.10927   	350.000000	0.1087    	350.000000	0.108987  	350.000000	0.109561  	350.000000	3.00852e-05	
360.000000	0.0936809 	360.000000	0.108018  	360.000000	0.107697  	360.000000	0.107133  	360.000000	0.107422  	360.000000	0.107989  	360.000000	2.93114e-05	
370.000000	0.0923759 	370.000000	0.10653   	370.000000	0.106198  	370.000000	0.105645  	370.000000	0.105934  	370.000000	0.106502  	370.000000	2.85778e-05	
380.000000	0.0911379 	380.000000	0.105121  	380.000000	0.104784  	380.000000	0.104235  	380.000000	0.104525  	380.000000	0.105093  	380.000000	2.78813e-05	
390.000000	0.089962  	390.000000	0.103784  	390.000000	0.103447  	390.000000	0.102899  	390.000000	0.10319   	390.000000	0.103757  	390.000000	2.72191e-05	
400.000000	0.0888437 	400.000000	0.102515  	400.000000	0.102177  	400.000000	0.101631  	400.000000	0.101922  	400.000000	0.102489  	400.000000	2.65887e-05	
410.000000	0.087779  	410.000000	0.101308  	410.000000	0.10097   	410.000000	0.100427  	410.000000	0.100718  	410.000000	0.101282  	410.000000	2.59878e-05	
