Energy (MeV/u)1	0 - [He-base] F.Hubert et al, AD&ND Tables 46(1990)1	Energy (MeV/u)2	1 - [H -base] J.F.Ziegler et al,Pergamon Press,NY(low energy)	Energy (MeV/u)3	2 - ATIMA 1.2 LS-theory (recommended for high energy)	Energy (MeV/u)4	3 - ATIMA 1.2 without LS-correction	Energy (MeV/u)5	4 - ATIMA 1.4 H.Weick, improved mean charge formula for HI	Energy (MeV/u)6	5 - electrical component of [1] - J.F.Ziegler et al	Energy (MeV/u)7	6 - nuclear component of [1] - J.F.Ziegler et al	
0.001000	1.7879    	0.001000	1.04542   	0.001000	1.13026   	0.001000	1.13026   	0.001000	1.13033   	0.001000	0.532916  	0.001000	0.512503  	
0.002000	1.95347   	0.002000	1.11823   	0.002000	1.22522   	0.002000	1.22522   	0.002000	1.22527   	0.002000	0.708647  	0.002000	0.409584  	
0.005000	2.36616   	0.005000	1.30144   	0.005000	1.44907   	0.005000	1.44907   	0.005000	1.4491    	0.005000	1.03451   	0.005000	0.266928  	
0.008000	2.69336   	0.008000	1.46111   	0.008000	1.63664   	0.008000	1.63664   	0.008000	1.63666   	0.008000	1.25696   	0.008000	0.20415   	
0.010000	2.88085   	0.010000	1.55701   	0.010000	1.74797   	0.010000	1.74797   	0.010000	1.74798   	0.010000	1.37896   	0.010000	0.178046  	
0.015000	3.35631   	0.015000	1.80382   	0.015000	2.02975   	0.015000	2.02975   	0.015000	2.02976   	0.015000	1.66684   	0.015000	0.13698   	
0.020000	3.73619   	0.020000	2.14566   	0.020000	2.37529   	0.020000	2.37529   	0.020000	2.3753    	0.020000	2.03345   	0.020000	0.112206  	
0.025000	4.15539   	0.025000	2.48141   	0.025000	2.7176    	0.025000	2.7176    	0.025000	2.71761   	0.025000	2.38543   	0.025000	0.0959817 	
0.030000	4.51069   	0.030000	2.80537   	0.030000	2.98697   	0.030000	2.98697   	0.030000	2.98698   	0.030000	2.72114   	0.030000	0.0842381 	
0.035000	4.80279   	0.035000	3.11341   	0.035000	3.24053   	0.035000	3.24053   	0.035000	3.24054   	0.035000	3.0385    	0.035000	0.0749054 	
0.040000	5.033     	0.040000	3.40373   	0.040000	3.47917   	0.040000	3.47917   	0.040000	3.47917   	0.040000	3.33584   	0.040000	0.0678858 	
0.045000	5.20377   	0.045000	3.67425   	0.045000	3.70262   	0.045000	3.70262   	0.045000	3.70262   	0.045000	3.61206   	0.045000	0.0621805 	
0.050000	5.31857   	0.050000	3.92413   	0.050000	3.91119   	0.050000	3.91119   	0.050000	3.9112    	0.050000	3.86668   	0.050000	0.0574418 	
0.055000	5.55018   	0.055000	4.15319   	0.055000	4.10532   	0.055000	4.10532   	0.055000	4.10533   	0.055000	4.09976   	0.055000	0.0534365 	
0.060000	5.74746   	0.060000	4.3618    	0.060000	4.28551   	0.060000	4.28551   	0.060000	4.28552   	0.060000	4.3118    	0.060000	0.0500015 	
0.070000	6.04882   	0.070000	4.7209    	0.070000	4.60652   	0.070000	4.60652   	0.070000	4.60653   	0.070000	4.6765    	0.070000	0.0444045 	
0.080000	6.37217   	0.080000	5.0102    	0.080000	4.87952   	0.080000	4.87952   	0.080000	4.87952   	0.080000	4.97018   	0.080000	0.0400258 	
0.090000	6.62619   	0.090000	5.24349   	0.090000	5.11014   	0.090000	5.11014   	0.090000	5.11015   	0.090000	5.20699   	0.090000	0.0364972 	
0.100000	6.82993   	0.100000	5.43508   	0.100000	5.30394   	0.100000	5.30394   	0.100000	5.30395   	0.100000	5.4015    	0.100000	0.0335872 	
0.120000	6.95369   	0.120000	5.70326   	0.120000	5.60118   	0.120000	5.60118   	0.120000	5.60119   	0.120000	5.67421   	0.120000	0.029056  	
0.140000	7.00287   	0.140000	5.86545   	0.140000	5.80599   	0.140000	5.80599   	0.140000	5.80599   	0.140000	5.83977   	0.140000	0.0256781 	
0.160000	7.02029   	0.160000	5.95452   	0.160000	5.94432   	0.160000	5.94432   	0.160000	5.94433   	0.160000	5.93146   	0.160000	0.0230543 	
0.180000	7.01882   	0.180000	5.98154   	0.180000	6.03476   	0.180000	6.03476   	0.180000	6.03477   	0.180000	5.96059   	0.180000	0.0209521 	
0.200000	7.03417   	0.200000	5.98936   	0.200000	6.09043   	0.200000	6.09043   	0.200000	6.09043   	0.200000	5.97014   	0.200000	0.0192267 	
0.250000	6.9058    	0.250000	5.96669   	0.250000	6.1321    	0.250000	6.1321    	0.250000	6.1321    	0.250000	5.95068   	0.250000	0.016008  	
0.300000	6.93417   	0.300000	6.00431   	0.300000	6.09507   	0.300000	6.09507   	0.300000	6.09508   	0.300000	5.99055   	0.300000	0.0137667 	
0.350000	6.98614   	0.350000	6.03927   	0.350000	6.02028   	0.350000	6.02028   	0.350000	6.02029   	0.350000	6.02717   	0.350000	0.0121092 	
0.400000	6.97394   	0.400000	6.00951   	0.400000	5.93756   	0.400000	5.93756   	0.400000	5.93757   	0.400000	5.99868   	0.400000	0.0108299 	
0.450000	6.93545   	0.450000	5.95574   	0.450000	5.88606   	0.450000	5.88606   	0.450000	5.88607   	0.450000	5.94593   	0.450000	0.00981036	
0.500000	6.91602   	0.500000	5.92038   	0.500000	5.81803   	0.500000	5.81803   	0.500000	5.81803   	0.500000	5.9114    	0.500000	0.00897726	
0.600000	6.6087    	0.600000	5.82938   	0.600000	5.65878   	0.600000	5.65878   	0.600000	5.65878   	0.600000	5.82168   	0.600000	0.00769438	
0.700000	6.26348   	0.700000	5.71339   	0.700000	5.47627   	0.700000	5.47627   	0.700000	5.47628   	0.700000	5.70664   	0.700000	0.00674979	
0.800000	6.13024   	0.800000	5.57438   	0.800000	5.2976    	0.800000	5.2976    	0.800000	5.2976    	0.800000	5.56836   	0.800000	0.00602325	
0.900000	5.98304   	0.900000	5.43027   	0.900000	5.12907   	0.900000	5.12907   	0.900000	5.12907   	0.900000	5.42483   	0.900000	0.00544588	
1.000000	5.82829   	1.000000	5.28509   	1.000000	4.97041   	1.000000	4.97041   	1.000000	4.97041   	1.000000	5.28011   	1.000000	0.00497526	
1.250000	5.38646   	1.250000	4.89687   	1.250000	4.60551   	1.250000	4.60551   	1.250000	4.60551   	1.250000	4.89276   	1.250000	0.00410553	
1.500000	4.93154   	1.500000	4.50123   	1.500000	4.27629   	1.500000	4.27629   	1.500000	4.27629   	1.500000	4.49772   	1.500000	0.00350661	
1.750000	4.54334   	1.750000	4.1685    	1.750000	3.99826   	1.750000	3.99826   	1.750000	3.99827   	1.750000	4.16543   	1.750000	0.00306751	
2.000000	4.18214   	2.000000	3.85837   	2.000000	3.75732   	2.000000	3.75732   	2.000000	3.75733   	2.000000	3.85564   	2.000000	0.00273094	
2.250000	3.8817    	2.250000	3.59644   	2.250000	3.54531   	2.250000	3.54531   	2.250000	3.54531   	2.250000	3.59397   	2.250000	0.00246426	
2.500000	3.61506   	2.500000	3.37615   	2.500000	3.35685   	2.500000	3.35685   	2.500000	3.35685   	2.500000	3.37391   	2.500000	0.00224742	
3.000000	3.22152   	3.000000	3.02149   	3.000000	3.03596   	3.000000	3.03596   	3.000000	3.03597   	3.000000	3.01957   	3.000000	0.00191551	
3.500000	2.90887   	3.500000	2.74308   	3.500000	2.77289   	3.500000	2.77289   	3.500000	2.77289   	3.500000	2.7414    	3.500000	0.00167279	
4.000000	2.65443   	4.000000	2.51772   	4.000000	2.5534    	4.000000	2.5534    	4.000000	2.5534    	4.000000	2.51623   	4.000000	0.00148713	
4.500000	2.44324   	4.500000	2.33068   	4.500000	2.36757   	4.500000	2.36757   	4.500000	2.36757   	4.500000	2.32934   	4.500000	0.00134027	
5.000000	2.26502   	5.000000	2.17222   	5.000000	2.20825   	5.000000	2.20825   	5.000000	2.20825   	5.000000	2.171     	5.000000	0.00122103	
5.500000	2.11254   	5.500000	2.03585   	5.500000	2.07015   	5.500000	2.07015   	5.500000	2.07015   	5.500000	2.03473   	5.500000	0.0011222 	
6.000000	1.98053   	6.000000	1.91705   	6.000000	1.94929   	6.000000	1.94929   	6.000000	1.94929   	6.000000	1.91601   	6.000000	0.00103886	
6.500000	1.86508   	6.500000	1.81249   	6.500000	1.84261   	6.500000	1.84261   	6.500000	1.84261   	6.500000	1.81153   	6.500000	0.000967594	
7.000000	1.76322   	7.000000	1.71969   	7.000000	1.74772   	7.000000	1.74772   	7.000000	1.74772   	7.000000	1.71879   	7.000000	0.000905913	
7.500000	1.67266   	7.500000	1.63671   	7.500000	1.66277   	7.500000	1.66277   	7.500000	1.66277   	7.500000	1.63586   	7.500000	0.000851977	
8.000000	1.59158   	8.000000	1.56203   	8.000000	1.58624   	8.000000	1.58624   	8.000000	1.58624   	8.000000	1.56123   	8.000000	0.000804392	
8.500000	1.51855   	8.500000	1.49444   	8.500000	1.51693   	8.500000	1.51693   	8.500000	1.51693   	8.500000	1.49368   	8.500000	0.000762082	
9.000000	1.45241   	9.000000	1.43295   	9.000000	1.45384   	9.000000	1.45384   	9.000000	1.45384   	9.000000	1.43223   	9.000000	0.000724203	
9.500000	1.39222   	9.500000	1.37675   	9.500000	1.39616   	9.500000	1.39616   	9.500000	1.39617   	9.500000	1.37606   	9.500000	0.000690083	
10.000000	1.33719   	10.000000	1.33419   	10.000000	1.34322   	10.000000	1.34322   	10.000000	1.34322   	10.000000	1.33353   	10.000000	0.00065918	
11.000000	1.24016   	11.000000	1.24273   	11.000000	1.24784   	11.000000	1.24877   	11.000000	1.24814   	11.000000	1.24213   	11.000000	0.000605337	
12.000000	1.15727   	12.000000	1.16356   	12.000000	1.16579   	12.000000	1.16734   	12.000000	1.16623   	12.000000	1.163     	12.000000	0.000559983	
13.000000	1.0856    	13.000000	1.09437   	13.000000	1.09445   	13.000000	1.09639   	13.000000	1.09492   	13.000000	1.09385   	13.000000	0.00052123	
14.000000	1.02299   	14.000000	1.03342   	14.000000	1.03182   	14.000000	1.03402   	14.000000	1.03228   	14.000000	1.03293   	14.000000	0.000487716	
15.000000	0.967789  	15.000000	0.979313  	15.000000	0.976365  	15.000000	0.978733  	15.000000	0.976816  	15.000000	0.978854  	15.000000	0.00045843	
16.000000	0.918748  	16.000000	0.930965  	16.000000	0.926951  	16.000000	0.929395  	16.000000	0.927359  	16.000000	0.930532  	16.000000	0.00043261	
17.000000	0.874874  	17.000000	0.887503  	17.000000	0.882637  	17.000000	0.885085  	17.000000	0.882983  	17.000000	0.887093  	17.000000	0.000409666	
18.000000	0.835377  	18.000000	0.84822   	18.000000	0.842632  	18.000000	0.845071  	18.000000	0.842933  	18.000000	0.847831  	18.000000	0.000389136	
19.000000	0.799626  	19.000000	0.81254   	19.000000	0.806335  	19.000000	0.808754  	19.000000	0.806615  	19.000000	0.81217   	19.000000	0.000370653	
20.000000	0.767103  	20.000000	0.779987  	20.000000	0.773285  	20.000000	0.775645  	20.000000	0.773533  	20.000000	0.779633  	20.000000	0.000353921	
21.000000	0.737382  	21.000000	0.750165  	21.000000	0.743066  	21.000000	0.745338  	21.000000	0.743262  	21.000000	0.749826  	21.000000	0.000338699	
22.000000	0.710112  	22.000000	0.722741  	22.000000	0.715312  	22.000000	0.717492  	22.000000	0.715473  	22.000000	0.722416  	22.000000	0.000324788	
23.000000	0.684997  	23.000000	0.697437  	23.000000	0.689729  	23.000000	0.691822  	23.000000	0.689867  	23.000000	0.697124  	23.000000	0.000312024	
24.000000	0.661786  	24.000000	0.674012  	24.000000	0.666072  	24.000000	0.668083  	24.000000	0.666203  	24.000000	0.673712  	24.000000	0.000300268	
25.000000	0.640267  	25.000000	0.652265  	25.000000	0.644137  	25.000000	0.64607   	25.000000	0.644269  	25.000000	0.651976  	25.000000	0.000289403	
27.000000	0.601606  	27.000000	0.613123  	27.000000	0.604774  	27.000000	0.606526  	27.000000	0.604897  	27.000000	0.612853  	27.000000	0.000269967	
29.000000	0.567839  	29.000000	0.578868  	29.000000	0.570498  	29.000000	0.572029  	29.000000	0.570581  	29.000000	0.578615  	29.000000	0.000253079	
31.000000	0.538078  	31.000000	0.548631  	31.000000	0.54075   	31.000000	0.542004  	31.000000	0.540801  	31.000000	0.548393  	31.000000	0.000238261	
33.000000	0.511639  	33.000000	0.521738  	33.000000	0.514625  	33.000000	0.515625  	33.000000	0.514688  	33.000000	0.521513  	33.000000	0.000225151	
35.000000	0.487986  	35.000000	0.497656  	35.000000	0.491229  	35.000000	0.492005  	35.000000	0.491289  	35.000000	0.497443  	35.000000	0.000213466	
38.000000	0.456822  	38.000000	0.465903  	38.000000	0.460362  	38.000000	0.460854  	38.000000	0.460403  	38.000000	0.465705  	38.000000	0.000198133	
41.000000	0.429883  	41.000000	0.438435  	41.000000	0.433649  	41.000000	0.433897  	41.000000	0.433651  	41.000000	0.43825   	41.000000	0.000184936	
44.000000	0.406349  	44.000000	0.414432  	44.000000	0.410221  	44.000000	0.410325  	44.000000	0.410241  	44.000000	0.414258  	44.000000	0.000173454	
47.000000	0.385603  	47.000000	0.393269  	47.000000	0.389579  	47.000000	0.389529  	47.000000	0.389574  	47.000000	0.393105  	47.000000	0.000163367	
50.000000	0.367168  	50.000000	0.374465  	50.000000	0.371211  	50.000000	0.371037  	50.000000	0.371186  	50.000000	0.37431   	50.000000	0.000154434	
55.000000	0.340603  	55.000000	0.347375  	55.000000	0.344667  	55.000000	0.34437   	55.000000	0.344652  	55.000000	0.347234  	55.000000	0.000141611	
60.000000	0.318163  	60.000000	0.324508  	60.000000	0.32222   	60.000000	0.32183   	60.000000	0.322208  	60.000000	0.324377  	60.000000	0.000130828	
65.000000	0.298941  	65.000000	0.304937  	65.000000	0.302949  	65.000000	0.302515  	65.000000	0.302963  	65.000000	0.304815  	65.000000	0.000121629	
70.000000	0.282278  	70.000000	0.287989  	70.000000	0.286285  	70.000000	0.28577   	70.000000	0.28627   	70.000000	0.287876  	70.000000	0.000113685	
75.000000	0.267685  	75.000000	0.273167  	75.000000	0.271639  	75.000000	0.271107  	75.000000	0.271647  	75.000000	0.27306   	75.000000	0.000106752	
80.000000	0.254792  	80.000000	0.260088  	80.000000	0.258736  	80.000000	0.258156  	80.000000	0.258725  	80.000000	0.259987  	80.000000	0.000100646	
85.000000	0.243313  	85.000000	0.24846   	85.000000	0.247217  	85.000000	0.24663   	85.000000	0.247221  	85.000000	0.248365  	85.000000	9.52263e-05	
90.000000	0.233021  	90.000000	0.238051  	90.000000	0.236928  	90.000000	0.236304  	90.000000	0.236911  	90.000000	0.237961  	90.000000	9.03818e-05	
95.000000	0.223739  	95.000000	0.228678  	95.000000	0.227622  	95.000000	0.226996  	95.000000	0.227616  	95.000000	0.228592  	95.000000	8.60245e-05	
100.000000	0.21532   	100.000000	0.220191  	100.000000	0.21919   	100.000000	0.218563  	100.000000	0.219193  	100.000000	0.220109  	100.000000	8.20833e-05	
105.000000	0.207647  	105.000000	0.21247   	105.000000	0.21151   	105.000000	0.210885  	105.000000	0.211521  	105.000000	0.212391  	105.000000	7.85008e-05	
110.000000	0.200624  	110.000000	0.205414  	110.000000	0.204513  	110.000000	0.203865  	110.000000	0.204506  	110.000000	0.205339  	110.000000	7.52295e-05	
115.000000	0.194168  	115.000000	0.19894   	115.000000	0.198075  	115.000000	0.19742   	115.000000	0.198063  	115.000000	0.198868  	115.000000	7.223e-05 	
120.000000	0.188213  	120.000000	0.192979  	120.000000	0.192132  	120.000000	0.191482  	120.000000	0.192128  	120.000000	0.19291   	120.000000	6.94694e-05	
125.000000	0.1827    	125.000000	0.187472  	125.000000	0.186643  	125.000000	0.185994  	125.000000	0.186639  	125.000000	0.187405  	125.000000	6.69199e-05	
130.000000	0.177582  	130.000000	0.182367  	130.000000	0.181551  	130.000000	0.180905  	130.000000	0.181551  	130.000000	0.182302  	130.000000	6.45579e-05	
135.000000	0.172815  	135.000000	0.177623  	135.000000	0.176817  	135.000000	0.176173  	135.000000	0.176818  	135.000000	0.17756   	135.000000	6.23631e-05	
140.000000	0.168365  	140.000000	0.173201  	140.000000	0.172404  	140.000000	0.171762  	140.000000	0.172407  	140.000000	0.173141  	140.000000	6.03183e-05	
145.000000	0.164199  	145.000000	0.169071  	145.000000	0.16828   	145.000000	0.167641  	145.000000	0.168283  	145.000000	0.169013  	145.000000	5.84082e-05	
150.000000	0.160291  	150.000000	0.165204  	150.000000	0.164418  	150.000000	0.163781  	150.000000	0.164421  	150.000000	0.165147  	150.000000	5.66199e-05	
155.000000	0.154789  	155.000000	0.161575  	155.000000	0.160793  	155.000000	0.160158  	155.000000	0.160796  	155.000000	0.16152   	155.000000	5.4942e-05	
160.000000	0.151563  	160.000000	0.158163  	160.000000	0.157383  	160.000000	0.156752  	160.000000	0.157387  	160.000000	0.15811   	160.000000	5.33644e-05	
165.000000	0.148522  	165.000000	0.154949  	165.000000	0.154172  	165.000000	0.153542  	165.000000	0.154176  	165.000000	0.154898  	165.000000	5.18782e-05	
170.000000	0.145649  	170.000000	0.151917  	170.000000	0.151141  	170.000000	0.150514  	170.000000	0.151144  	170.000000	0.151866  	170.000000	5.04757e-05	
175.000000	0.14293   	175.000000	0.149051  	175.000000	0.148275  	175.000000	0.147651  	175.000000	0.148279  	175.000000	0.149002  	175.000000	4.91498e-05	
180.000000	0.140354  	180.000000	0.146337  	180.000000	0.145563  	180.000000	0.144941  	180.000000	0.145566  	180.000000	0.146289  	180.000000	4.78944e-05	
185.000000	0.137908  	185.000000	0.143765  	185.000000	0.142991  	185.000000	0.142371  	185.000000	0.142993  	185.000000	0.143718  	185.000000	4.67039e-05	
190.000000	0.135585  	190.000000	0.141323  	190.000000	0.140549  	190.000000	0.139932  	190.000000	0.140551  	190.000000	0.141277  	190.000000	4.55734e-05	
195.000000	0.133373  	195.000000	0.139001  	195.000000	0.138228  	195.000000	0.137614  	195.000000	0.13823   	195.000000	0.138957  	195.000000	4.44984e-05	
200.000000	0.131266  	200.000000	0.136792  	200.000000	0.136019  	200.000000	0.135407  	200.000000	0.13602   	200.000000	0.136748  	200.000000	4.34748e-05	
210.000000	0.127336  	210.000000	0.132677  	210.000000	0.131906  	210.000000	0.131298  	210.000000	0.131906  	210.000000	0.132636  	210.000000	4.15677e-05	
220.000000	0.123744  	220.000000	0.128925  	220.000000	0.128155  	220.000000	0.127551  	220.000000	0.128153  	220.000000	0.128885  	220.000000	3.98267e-05	
230.000000	0.120448  	230.000000	0.125488  	230.000000	0.124721  	230.000000	0.124122  	230.000000	0.124718  	230.000000	0.12545   	230.000000	3.82308e-05	
240.000000	0.117413  	240.000000	0.12233   	240.000000	0.121565  	240.000000	0.120971  	240.000000	0.121561  	240.000000	0.122293  	240.000000	3.67623e-05	
250.000000	0.114608  	250.000000	0.119417  	250.000000	0.118658  	250.000000	0.118066  	250.000000	0.118651  	250.000000	0.119382  	250.000000	3.54065e-05	
260.000000	0.112009  	260.000000	0.116723  	260.000000	0.115962  	260.000000	0.11538   	260.000000	0.11596   	260.000000	0.116689  	260.000000	3.41506e-05	
270.000000	0.109593  	270.000000	0.114224  	270.000000	0.113458  	270.000000	0.11289   	270.000000	0.113465  	270.000000	0.114191  	270.000000	3.29839e-05	
280.000000	0.107342  	280.000000	0.111899  	280.000000	0.111141  	280.000000	0.110576  	280.000000	0.111146  	280.000000	0.111867  	280.000000	3.18971e-05	
290.000000	0.10524   	290.000000	0.109732  	290.000000	0.108982  	290.000000	0.108419  	290.000000	0.108985  	290.000000	0.109701  	290.000000	3.08821e-05	
300.000000	0.103271  	300.000000	0.107706  	300.000000	0.106965  	300.000000	0.106405  	300.000000	0.106966  	300.000000	0.107676  	300.000000	2.99321e-05	
310.000000	0.101425  	310.000000	0.105809  	310.000000	0.105077  	310.000000	0.10452   	310.000000	0.105077  	310.000000	0.10578   	310.000000	2.90408e-05	
320.000000	0.0996896 	320.000000	0.10403   	320.000000	0.103307  	320.000000	0.102753  	320.000000	0.103305  	320.000000	0.104002  	320.000000	2.82029e-05	
330.000000	0.0980555 	330.000000	0.102357  	330.000000	0.101644  	330.000000	0.101093  	330.000000	0.101641  	330.000000	0.102329  	330.000000	2.74137e-05	
340.000000	0.0965143 	340.000000	0.100781  	340.000000	0.100079  	340.000000	0.0995307 	340.000000	0.100075  	340.000000	0.100755  	340.000000	2.66691e-05	
350.000000	0.0950584 	350.000000	0.0992956 	350.000000	0.0986057 	350.000000	0.0980586 	350.000000	0.0985994 	350.000000	0.0992696 	350.000000	2.59653e-05	
360.000000	0.0936809 	360.000000	0.097892  	360.000000	0.0972098 	360.000000	0.096669  	360.000000	0.0972063 	360.000000	0.0978667 	360.000000	2.52989e-05	
370.000000	0.0923759 	370.000000	0.0965643 	370.000000	0.0958867 	370.000000	0.0953556 	370.000000	0.0958896 	370.000000	0.0965396 	370.000000	2.46672e-05	
380.000000	0.0911379 	380.000000	0.0953065 	380.000000	0.0946388 	380.000000	0.0941124 	380.000000	0.0946429 	380.000000	0.0952824 	380.000000	2.40673e-05	
390.000000	0.089962  	390.000000	0.0941135 	390.000000	0.0934596 	390.000000	0.0929343 	390.000000	0.0934615 	390.000000	0.09409   	390.000000	2.3497e-05	
400.000000	0.0888437 	400.000000	0.0929807 	400.000000	0.0923403 	400.000000	0.0918164 	400.000000	0.0923407 	400.000000	0.0929577 	400.000000	2.2954e-05	
410.000000	0.087779  	410.000000	0.0919036 	410.000000	0.0912761 	410.000000	0.0907545 	410.000000	0.0912757 	410.000000	0.0918811 	410.000000	2.24364e-05	
