Energy (MeV/u)1	0 - [He-base] F.Hubert et al, AD&ND Tables 46(1990)1	Energy (MeV/u)2	1 - [H -base] J.F.Ziegler et al,Pergamon Press,NY(low energy)	Energy (MeV/u)3	2 - ATIMA 1.2 LS-theory (recommended for high energy)	Energy (MeV/u)4	3 - ATIMA 1.2 without LS-correction	Energy (MeV/u)5	4 - ATIMA 1.4 H.Weick, improved mean charge formula for HI	Energy (MeV/u)6	5 - electrical component of [1] - J.F.Ziegler et al	Energy (MeV/u)7	6 - nuclear component of [1] - J.F.Ziegler et al	
0.001000	1.7879    	0.001000	0.994412  	0.001000	1.0801    	0.001000	1.0801    	0.001000	1.08018   	0.001000	0.475073  	0.001000	0.519339  	
0.002000	1.95347   	0.002000	1.04965   	0.002000	1.16248   	0.002000	1.16248   	0.002000	1.16253   	0.002000	0.635069  	0.002000	0.414584  	
0.005000	2.36616   	0.005000	1.2033    	0.005000	1.36852   	0.005000	1.36852   	0.005000	1.36854   	0.005000	0.933649  	0.005000	0.269649  	
0.008000	2.69336   	0.008000	1.34457   	0.008000	1.54711   	0.008000	1.54711   	0.008000	1.54712   	0.008000	1.13854   	0.008000	0.206026  	
0.010000	2.88085   	0.010000	1.43083   	0.010000	1.65434   	0.010000	1.65434   	0.010000	1.65436   	0.010000	1.25122   	0.010000	0.179602  	
0.015000	3.35631   	0.015000	1.64578   	0.015000	1.90802   	0.015000	1.90802   	0.015000	1.90803   	0.015000	1.5077    	0.015000	0.138077  	
0.020000	3.73619   	0.020000	1.94693   	0.020000	2.22771   	0.020000	2.22771   	0.020000	2.22772   	0.020000	1.83342   	0.020000	0.113511  	
0.025000	4.15539   	0.025000	2.23886   	0.025000	2.54368   	0.025000	2.54368   	0.025000	2.54369   	0.025000	2.1423    	0.025000	0.096557  	
0.030000	4.51069   	0.030000	2.51969   	0.030000	2.78514   	0.030000	2.78514   	0.030000	2.78514   	0.030000	2.43496   	0.030000	0.084726  	
0.035000	4.80279   	0.035000	2.78642   	0.035000	3.01321   	0.035000	3.01321   	0.035000	3.01321   	0.035000	2.71101   	0.035000	0.0754142 	
0.040000	5.033     	0.040000	3.0383    	0.040000	3.22868   	0.040000	3.22868   	0.040000	3.22869   	0.040000	2.96997   	0.040000	0.0683341 	
0.045000	5.20377   	0.045000	3.27417   	0.045000	3.43143   	0.045000	3.43143   	0.045000	3.43143   	0.045000	3.21159   	0.045000	0.0625813 	
0.050000	5.31857   	0.050000	3.49371   	0.050000	3.62174   	0.050000	3.62174   	0.050000	3.62174   	0.050000	3.43591   	0.050000	0.0578045 	
0.055000	5.55018   	0.055000	3.69703   	0.055000	3.79996   	0.055000	3.79996   	0.055000	3.79997   	0.055000	3.64326   	0.055000	0.0537677 	
0.060000	5.74746   	0.060000	3.88455   	0.060000	3.96654   	0.060000	3.96654   	0.060000	3.96654   	0.060000	3.83425   	0.060000	0.0503064 	
0.070000	6.04882   	0.070000	4.21506   	0.070000	4.26667   	0.070000	4.26667   	0.070000	4.26668   	0.070000	4.1704    	0.070000	0.0446678 	
0.080000	6.37217   	0.080000	4.49219   	0.080000	4.52637   	0.080000	4.52637   	0.080000	4.52637   	0.080000	4.45194   	0.080000	0.0402577 	
0.090000	6.62619   	0.090000	4.72556   	0.090000	4.75009   	0.090000	4.75009   	0.090000	4.75009   	0.090000	4.68885   	0.090000	0.0367046 	
0.100000	6.82993   	0.100000	4.9287    	0.100000	4.94223   	0.100000	4.94223   	0.100000	4.94223   	0.100000	4.89493   	0.100000	0.0337747 	
0.120000	6.95369   	0.120000	5.2412    	0.120000	5.24774   	0.120000	5.24774   	0.120000	5.24774   	0.120000	5.21198   	0.120000	0.0292137 	
0.140000	7.00287   	0.140000	5.46111   	0.140000	5.47068   	0.140000	5.47068   	0.140000	5.47069   	0.140000	5.4353    	0.140000	0.0258143 	
0.160000	7.02029   	0.160000	5.61152   	0.160000	5.63214   	0.160000	5.63214   	0.160000	5.63214   	0.160000	5.58835   	0.160000	0.0231742 	
0.180000	7.01882   	0.180000	5.69347   	0.180000	5.74751   	0.180000	5.74751   	0.180000	5.74752   	0.180000	5.67242   	0.180000	0.0210592 	
0.200000	7.03417   	0.200000	5.74859   	0.200000	5.828     	0.200000	5.828     	0.200000	5.828     	0.200000	5.72926   	0.200000	0.0193236 	
0.250000	6.9058    	0.250000	5.81142   	0.250000	5.92535   	0.250000	5.92535   	0.250000	5.92536   	0.250000	5.79534   	0.250000	0.0160863 	
0.300000	6.93417   	0.300000	5.89667   	0.300000	5.93193   	0.300000	5.93193   	0.300000	5.93194   	0.300000	5.88284   	0.300000	0.0138325 	
0.350000	6.98614   	0.350000	5.96411   	0.350000	5.88982   	0.350000	5.88982   	0.350000	5.88983   	0.350000	5.95195   	0.350000	0.012166  	
0.400000	6.97394   	0.400000	5.95624   	0.400000	5.83      	0.400000	5.83      	0.400000	5.83      	0.400000	5.94536   	0.400000	0.0108799 	
0.450000	6.93545   	0.450000	5.91761   	0.450000	5.79707   	0.450000	5.79707   	0.450000	5.79707   	0.450000	5.90776   	0.450000	0.00985505	
0.500000	6.91602   	0.500000	5.89324   	0.500000	5.74347   	0.500000	5.74347   	0.500000	5.74347   	0.500000	5.88422   	0.500000	0.00901768	
0.600000	6.6087    	0.600000	5.82169   	0.600000	5.60494   	0.600000	5.60494   	0.600000	5.60494   	0.600000	5.81396   	0.600000	0.00772834	
0.700000	6.26348   	0.700000	5.7208    	0.700000	5.43665   	0.700000	5.43665   	0.700000	5.43665   	0.700000	5.71402   	0.700000	0.00677909	
0.800000	6.13024   	0.800000	5.59415   	0.800000	5.26809   	0.800000	5.26809   	0.800000	5.2681    	0.800000	5.5881    	0.800000	0.00604904	
0.900000	5.98304   	0.900000	5.45993   	0.900000	5.10732   	0.900000	5.10732   	0.900000	5.10732   	0.900000	5.45446   	0.900000	0.00546892	
1.000000	5.82829   	1.000000	5.32302   	1.000000	4.95481   	1.000000	4.95481   	1.000000	4.95481   	1.000000	5.31803   	1.000000	0.00499609	
1.250000	5.38646   	1.250000	4.94735   	1.250000	4.60079   	1.250000	4.60079   	1.250000	4.60079   	1.250000	4.94323   	1.250000	0.00412236	
1.500000	4.93154   	1.500000	4.55468   	1.500000	4.27805   	1.500000	4.27805   	1.500000	4.27805   	1.500000	4.55115   	1.500000	0.00352074	
1.750000	4.54334   	1.750000	4.22247   	1.750000	4.00428   	1.750000	4.00428   	1.750000	4.00428   	1.750000	4.21939   	1.750000	0.0030797 	
2.000000	4.18214   	2.000000	3.91016   	2.000000	3.76611   	2.000000	3.76611   	2.000000	3.76611   	2.000000	3.90741   	2.000000	0.00274167	
2.250000	3.8817    	2.250000	3.64576   	2.250000	3.55588   	2.250000	3.55588   	2.250000	3.55588   	2.250000	3.64329   	2.250000	0.00247384	
2.500000	3.61506   	2.500000	3.42328   	2.500000	3.36851   	2.500000	3.36851   	2.500000	3.36851   	2.500000	3.42103   	2.500000	0.00225608	
3.000000	3.22152   	3.000000	3.06461   	3.000000	3.04857   	3.000000	3.04857   	3.000000	3.04857   	3.000000	3.06269   	3.000000	0.00192279	
3.500000	2.90887   	3.500000	2.7825    	3.500000	2.7855    	3.500000	2.7855    	3.500000	2.7855    	3.500000	2.78082   	3.500000	0.00167907	
4.000000	2.65443   	4.000000	2.55379   	4.000000	2.56555   	4.000000	2.56555   	4.000000	2.56556   	4.000000	2.5523    	4.000000	0.00149265	
4.500000	2.44324   	4.500000	2.36376   	4.500000	2.37907   	4.500000	2.37907   	4.500000	2.37907   	4.500000	2.36242   	4.500000	0.0013452 	
5.000000	2.26502   	5.000000	2.20262   	5.000000	2.21901   	5.000000	2.21901   	5.000000	2.21901   	5.000000	2.20139   	5.000000	0.00122549	
5.500000	2.11254   	5.500000	2.06385   	5.500000	2.08016   	5.500000	2.08016   	5.500000	2.08016   	5.500000	2.06273   	5.500000	0.00112626	
6.000000	1.98053   	6.000000	1.94291   	6.000000	1.95855   	6.000000	1.95855   	6.000000	1.95855   	6.000000	1.94187   	6.000000	0.0010426 	
6.500000	1.86508   	6.500000	1.83645   	6.500000	1.85116   	6.500000	1.85116   	6.500000	1.85117   	6.500000	1.83547   	6.500000	0.000971059	
7.000000	1.76322   	7.000000	1.74193   	7.000000	1.75562   	7.000000	1.75562   	7.000000	1.75562   	7.000000	1.74102   	7.000000	0.00090914	
7.500000	1.67266   	7.500000	1.6574    	7.500000	1.67004   	7.500000	1.67004   	7.500000	1.67005   	7.500000	1.65655   	7.500000	0.000854997	
8.000000	1.59158   	8.000000	1.58133   	8.000000	1.59294   	8.000000	1.59294   	8.000000	1.59294   	8.000000	1.58053   	8.000000	0.000807231	
8.500000	1.51855   	8.500000	1.51248   	8.500000	1.5231    	8.500000	1.5231    	8.500000	1.5231    	8.500000	1.51172   	8.500000	0.00076476	
9.000000	1.45241   	9.000000	1.44985   	9.000000	1.45952   	9.000000	1.45952   	9.000000	1.45952   	9.000000	1.44912   	9.000000	0.000726738	
9.500000	1.39222   	9.500000	1.39261   	9.500000	1.40138   	9.500000	1.40138   	9.500000	1.40138   	9.500000	1.39192   	9.500000	0.000692489	
10.000000	1.33719   	10.000000	1.34947   	10.000000	1.34802   	10.000000	1.34802   	10.000000	1.34802   	10.000000	1.34881   	10.000000	0.000661471	
11.000000	1.24016   	11.000000	1.25581   	11.000000	1.25198   	11.000000	1.25292   	11.000000	1.25229   	11.000000	1.2552    	11.000000	0.000607428	
12.000000	1.15727   	12.000000	1.1749    	12.000000	1.16941   	12.000000	1.17096   	12.000000	1.16984   	12.000000	1.17434   	12.000000	0.000561906	
13.000000	1.0856    	13.000000	1.10434   	13.000000	1.09764   	13.000000	1.09958   	13.000000	1.09811   	13.000000	1.10381   	13.000000	0.000523011	
14.000000	1.02299   	14.000000	1.04226   	14.000000	1.03466   	14.000000	1.03686   	14.000000	1.03513   	14.000000	1.04177   	14.000000	0.000489374	
15.000000	0.967789  	15.000000	0.987222  	15.000000	0.978937  	15.000000	0.981307  	15.000000	0.97939   	15.000000	0.986762  	15.000000	0.000459982	
16.000000	0.918748  	16.000000	0.938096  	16.000000	0.92931   	16.000000	0.931756  	16.000000	0.929721  	16.000000	0.937662  	16.000000	0.000434069	
17.000000	0.874874  	17.000000	0.893976  	17.000000	0.884834  	17.000000	0.887284  	17.000000	0.885181  	17.000000	0.893565  	17.000000	0.000411042	
18.000000	0.835377  	18.000000	0.854131  	18.000000	0.844708  	18.000000	0.847148  	18.000000	0.845011  	18.000000	0.85374   	18.000000	0.000390439	
19.000000	0.799626  	19.000000	0.817966  	19.000000	0.808326  	19.000000	0.810747  	19.000000	0.808608  	19.000000	0.817594  	19.000000	0.00037189	
20.000000	0.767103  	20.000000	0.784991  	20.000000	0.775221  	20.000000	0.777583  	20.000000	0.775471  	20.000000	0.784636  	20.000000	0.000355098	
21.000000	0.737382  	21.000000	0.7548    	21.000000	0.744974  	21.000000	0.747247  	21.000000	0.745171  	21.000000	0.75446   	21.000000	0.000339822	
22.000000	0.710112  	22.000000	0.727052  	22.000000	0.717214  	22.000000	0.719395  	22.000000	0.717376  	22.000000	0.726726  	22.000000	0.000325862	
23.000000	0.684997  	23.000000	0.701459  	23.000000	0.691643  	23.000000	0.693737  	23.000000	0.691782  	23.000000	0.701146  	23.000000	0.000313052	
24.000000	0.661786  	24.000000	0.677779  	24.000000	0.668015  	24.000000	0.670028  	24.000000	0.668147  	24.000000	0.677478  	24.000000	0.000301255	
25.000000	0.640267  	25.000000	0.655802  	25.000000	0.646124  	25.000000	0.648057  	25.000000	0.646256  	25.000000	0.655512  	25.000000	0.000290353	
27.000000	0.601606  	27.000000	0.616268  	27.000000	0.606882  	27.000000	0.608635  	27.000000	0.607006  	27.000000	0.615997  	27.000000	0.000270849	
29.000000	0.567839  	29.000000	0.581691  	29.000000	0.572765  	29.000000	0.574297  	29.000000	0.572848  	29.000000	0.581437  	29.000000	0.000253902	
31.000000	0.538078  	31.000000	0.551186  	31.000000	0.543035  	31.000000	0.54429   	31.000000	0.543087  	31.000000	0.550947  	31.000000	0.000239033	
33.000000	0.511639  	33.000000	0.524066  	33.000000	0.516781  	33.000000	0.517781  	33.000000	0.516844  	33.000000	0.52384   	33.000000	0.000225878	
35.000000	0.487986  	35.000000	0.499792  	35.000000	0.493269  	35.000000	0.494045  	35.000000	0.493329  	35.000000	0.499578  	35.000000	0.000214153	
38.000000	0.456822  	38.000000	0.467799  	38.000000	0.462252  	38.000000	0.462744  	38.000000	0.462292  	38.000000	0.4676    	38.000000	0.000198767	
41.000000	0.429883  	41.000000	0.440136  	41.000000	0.43541   	41.000000	0.435658  	41.000000	0.435412  	41.000000	0.43995   	41.000000	0.000185526	
44.000000	0.406349  	44.000000	0.415972  	44.000000	0.411872  	44.000000	0.411976  	44.000000	0.411891  	44.000000	0.415798  	44.000000	0.000174005	
47.000000	0.385603  	47.000000	0.394674  	47.000000	0.391133  	47.000000	0.391083  	47.000000	0.391127  	47.000000	0.39451   	47.000000	0.000163885	
50.000000	0.367168  	50.000000	0.375756  	50.000000	0.37268   	50.000000	0.372506  	50.000000	0.372655  	50.000000	0.375601  	50.000000	0.000154921	
55.000000	0.340603  	55.000000	0.348511  	55.000000	0.346015  	55.000000	0.345718  	55.000000	0.346     	55.000000	0.348369  	55.000000	0.000142056	
60.000000	0.318163  	60.000000	0.325521  	60.000000	0.323468  	60.000000	0.323078  	60.000000	0.323456  	60.000000	0.32539   	60.000000	0.000131237	
65.000000	0.298941  	65.000000	0.305851  	65.000000	0.304112  	65.000000	0.303678  	65.000000	0.304126  	65.000000	0.305729  	65.000000	0.000122008	
70.000000	0.282278  	70.000000	0.288823  	70.000000	0.287375  	70.000000	0.28686   	70.000000	0.28736   	70.000000	0.288709  	70.000000	0.000114037	
75.000000	0.267685  	75.000000	0.273932  	75.000000	0.272666  	75.000000	0.272134  	75.000000	0.272674  	75.000000	0.273825  	75.000000	0.000107081	
80.000000	0.254792  	80.000000	0.260796  	80.000000	0.259708  	80.000000	0.259128  	80.000000	0.259697  	80.000000	0.260695  	80.000000	0.000100956	
85.000000	0.243313  	85.000000	0.249119  	85.000000	0.24814   	85.000000	0.247553  	85.000000	0.248145  	85.000000	0.249024  	85.000000	9.55186e-05	
90.000000	0.233021  	90.000000	0.238668  	90.000000	0.237808  	90.000000	0.237183  	90.000000	0.237791  	90.000000	0.238577  	90.000000	9.06584e-05	
95.000000	0.223739  	95.000000	0.229258  	95.000000	0.228463  	95.000000	0.227838  	95.000000	0.228458  	95.000000	0.229172  	95.000000	8.6287e-05	
100.000000	0.21532   	100.000000	0.220739  	100.000000	0.219997  	100.000000	0.21937   	100.000000	0.219999  	100.000000	0.220657  	100.000000	8.23332e-05	
105.000000	0.207647  	105.000000	0.212989  	105.000000	0.212286  	105.000000	0.211661  	105.000000	0.212297  	105.000000	0.212911  	105.000000	7.87392e-05	
110.000000	0.200624  	110.000000	0.205908  	110.000000	0.20526   	110.000000	0.204612  	110.000000	0.205253  	110.000000	0.205833  	110.000000	7.54575e-05	
115.000000	0.194168  	115.000000	0.199412  	115.000000	0.198796  	115.000000	0.198141  	115.000000	0.198784  	115.000000	0.199339  	115.000000	7.24484e-05	
120.000000	0.188213  	120.000000	0.19343   	120.000000	0.19283   	120.000000	0.192179  	120.000000	0.192825  	120.000000	0.193361  	120.000000	6.96791e-05	
125.000000	0.1827    	125.000000	0.187904  	125.000000	0.187318  	125.000000	0.186669  	125.000000	0.187315  	125.000000	0.187837  	125.000000	6.71215e-05	
130.000000	0.177582  	130.000000	0.182783  	130.000000	0.182207  	130.000000	0.18156   	130.000000	0.182206  	130.000000	0.182718  	130.000000	6.47519e-05	
135.000000	0.172815  	135.000000	0.178023  	135.000000	0.177454  	135.000000	0.17681   	135.000000	0.177455  	135.000000	0.177961  	135.000000	6.25502e-05	
140.000000	0.168365  	140.000000	0.173588  	140.000000	0.173024  	140.000000	0.172382  	140.000000	0.173026  	140.000000	0.173527  	140.000000	6.04989e-05	
145.000000	0.164199  	145.000000	0.169445  	145.000000	0.168884  	145.000000	0.168244  	145.000000	0.168887  	145.000000	0.169386  	145.000000	5.85829e-05	
150.000000	0.160291  	150.000000	0.165566  	150.000000	0.165006  	150.000000	0.164369  	150.000000	0.16501   	150.000000	0.165509  	150.000000	5.6789e-05	
155.000000	0.154789  	155.000000	0.161926  	155.000000	0.161367  	155.000000	0.160732  	155.000000	0.161371  	155.000000	0.161871  	155.000000	5.51058e-05	
160.000000	0.151563  	160.000000	0.158504  	160.000000	0.157945  	160.000000	0.157313  	160.000000	0.157949  	160.000000	0.158451  	160.000000	5.35232e-05	
165.000000	0.148522  	165.000000	0.155281  	165.000000	0.154721  	165.000000	0.154091  	165.000000	0.154725  	165.000000	0.155229  	165.000000	5.20324e-05	
170.000000	0.145649  	170.000000	0.15224   	170.000000	0.151679  	170.000000	0.151051  	170.000000	0.151682  	170.000000	0.152189  	170.000000	5.06255e-05	
175.000000	0.14293   	175.000000	0.149365  	175.000000	0.148802  	175.000000	0.148178  	175.000000	0.148806  	175.000000	0.149316  	175.000000	4.92955e-05	
180.000000	0.140354  	180.000000	0.146644  	180.000000	0.14608   	180.000000	0.145457  	180.000000	0.146083  	180.000000	0.146596  	180.000000	4.80362e-05	
185.000000	0.137908  	185.000000	0.144065  	185.000000	0.143498  	185.000000	0.142878  	185.000000	0.143501  	185.000000	0.144018  	185.000000	4.6842e-05	
190.000000	0.135585  	190.000000	0.141616  	190.000000	0.141047  	190.000000	0.14043   	190.000000	0.14105   	190.000000	0.14157   	190.000000	4.5708e-05	
195.000000	0.133373  	195.000000	0.139288  	195.000000	0.138718  	195.000000	0.138103  	195.000000	0.138719  	195.000000	0.139243  	195.000000	4.46296e-05	
200.000000	0.131266  	200.000000	0.137072  	200.000000	0.1365    	200.000000	0.135888  	200.000000	0.136501  	200.000000	0.137029  	200.000000	4.36029e-05	
210.000000	0.127336  	210.000000	0.132947  	210.000000	0.132372  	210.000000	0.131764  	210.000000	0.132372  	210.000000	0.132905  	210.000000	4.16899e-05	
220.000000	0.123744  	220.000000	0.129184  	220.000000	0.128607  	220.000000	0.128004  	220.000000	0.128606  	220.000000	0.129144  	220.000000	3.99435e-05	
230.000000	0.120448  	230.000000	0.125739  	230.000000	0.125161  	230.000000	0.124561  	230.000000	0.125158  	230.000000	0.1257    	230.000000	3.83427e-05	
240.000000	0.117413  	240.000000	0.122572  	240.000000	0.121993  	240.000000	0.121399  	240.000000	0.12199   	240.000000	0.122535  	240.000000	3.68697e-05	
250.000000	0.114608  	250.000000	0.119652  	250.000000	0.119076  	250.000000	0.118484  	250.000000	0.119069  	250.000000	0.119617  	250.000000	3.55097e-05	
260.000000	0.112009  	260.000000	0.116951  	260.000000	0.116371  	260.000000	0.115789  	260.000000	0.116369  	260.000000	0.116917  	260.000000	3.425e-05 	
270.000000	0.109593  	270.000000	0.114445  	270.000000	0.113859  	270.000000	0.11329   	270.000000	0.113865  	270.000000	0.114412  	270.000000	3.30798e-05	
280.000000	0.107342  	280.000000	0.112115  	280.000000	0.111533  	280.000000	0.110967  	280.000000	0.111538  	280.000000	0.112083  	280.000000	3.19896e-05	
290.000000	0.10524   	290.000000	0.109942  	290.000000	0.109367  	290.000000	0.108803  	290.000000	0.109369  	290.000000	0.109911  	290.000000	3.09716e-05	
300.000000	0.103271  	300.000000	0.107911  	300.000000	0.107342  	300.000000	0.106782  	300.000000	0.107343  	300.000000	0.107881  	300.000000	3.00187e-05	
310.000000	0.101425  	310.000000	0.10601   	310.000000	0.105448  	310.000000	0.104891  	310.000000	0.105448  	310.000000	0.105981  	310.000000	2.91247e-05	
320.000000	0.0996896 	320.000000	0.104226  	320.000000	0.103672  	320.000000	0.103118  	320.000000	0.103671  	320.000000	0.104198  	320.000000	2.82843e-05	
330.000000	0.0980555 	330.000000	0.102549  	330.000000	0.102003  	330.000000	0.101452  	330.000000	0.102001  	330.000000	0.102521  	330.000000	2.74927e-05	
340.000000	0.0965143 	340.000000	0.10097   	340.000000	0.100434  	340.000000	0.0998848 	340.000000	0.10043   	340.000000	0.100943  	340.000000	2.67458e-05	
350.000000	0.0950584 	350.000000	0.0994801 	350.000000	0.0989553 	350.000000	0.0984078 	350.000000	0.098949  	350.000000	0.0994541 	350.000000	2.60399e-05	
360.000000	0.0936809 	360.000000	0.098073  	360.000000	0.0975548 	360.000000	0.0970137 	360.000000	0.0975513 	360.000000	0.0980477 	360.000000	2.53716e-05	
370.000000	0.0923759 	370.000000	0.096742  	370.000000	0.0962276 	370.000000	0.0956961 	370.000000	0.0962304 	370.000000	0.0967172 	370.000000	2.47379e-05	
380.000000	0.0911379 	380.000000	0.0954811 	380.000000	0.0949756 	380.000000	0.0944489 	380.000000	0.0949797 	380.000000	0.0954569 	380.000000	2.41362e-05	
390.000000	0.089962  	390.000000	0.0942851 	390.000000	0.0937927 	390.000000	0.093267  	390.000000	0.0937946 	390.000000	0.0942616 	390.000000	2.35642e-05	
400.000000	0.0888437 	400.000000	0.0931494 	400.000000	0.0926699 	400.000000	0.0921457 	400.000000	0.0926703 	400.000000	0.0931264 	400.000000	2.30196e-05	
410.000000	0.087779  	410.000000	0.0920696 	410.000000	0.0916024 	410.000000	0.0910805 	410.000000	0.091602  	410.000000	0.0920471 	410.000000	2.25004e-05	
