Energy (MeV/u)1	0 - [He-base] F.Hubert et al, AD&ND Tables 46(1990)1	Energy (MeV/u)2	1 - [H -base] J.F.Ziegler et al,Pergamon Press,NY(low energy)	Energy (MeV/u)3	2 - ATIMA 1.2 LS-theory (recommended for high energy)	Energy (MeV/u)4	3 - ATIMA 1.2 without LS-correction	Energy (MeV/u)5	4 - ATIMA 1.4 H.Weick, improved mean charge formula for HI	Energy (MeV/u)6	5 - electrical component of [1] - J.F.Ziegler et al	Energy (MeV/u)7	6 - nuclear component of [1] - J.F.Ziegler et al	
0.001000	1.7879    	0.001000	0.284106  	0.001000	0.260276  	0.001000	0.260276  	0.001000	0.260307  	0.001000	0.164822  	0.001000	0.119284  	
0.002000	1.95347   	0.002000	0.343105  	0.002000	0.3142    	0.002000	0.3142    	0.002000	0.314227  	0.002000	0.228296  	0.002000	0.114808  	
0.005000	2.36616   	0.005000	0.451889  	0.005000	0.418095  	0.005000	0.418095  	0.005000	0.418113  	0.005000	0.357213  	0.005000	0.0946766 	
0.008000	2.69336   	0.008000	0.53514   	0.008000	0.49374   	0.008000	0.49374   	0.008000	0.493753  	0.008000	0.454779  	0.008000	0.0803617 	
0.010000	2.88085   	0.010000	0.585997  	0.010000	0.540472  	0.010000	0.540472  	0.010000	0.540484  	0.010000	0.512729  	0.010000	0.0732681 	
0.015000	3.35631   	0.015000	0.690975  	0.015000	0.651758  	0.015000	0.651758  	0.015000	0.651767  	0.015000	0.630386  	0.015000	0.0605894 	
0.020000	3.73619   	0.020000	0.79143   	0.020000	0.759488  	0.020000	0.759488  	0.020000	0.759495  	0.020000	0.739311  	0.020000	0.0521188 	
0.025000	4.15539   	0.025000	0.889245  	0.025000	0.865932  	0.025000	0.865932  	0.025000	0.865938  	0.025000	0.843248  	0.025000	0.0459974 	
0.030000	4.51069   	0.030000	0.985138  	0.030000	0.941142  	0.030000	0.941142  	0.030000	0.941147  	0.030000	0.943805  	0.030000	0.041333  	
0.035000	4.80279   	0.035000	1.07937   	0.035000	1.0141    	0.035000	1.0141    	0.035000	1.01411   	0.035000	1.04173   	0.035000	0.0376413 	
0.040000	5.033     	0.040000	1.172     	0.040000	1.08486   	0.040000	1.08486   	0.040000	1.08486   	0.040000	1.13736   	0.040000	0.0346348 	
0.045000	5.20377   	0.045000	1.26297   	0.045000	1.15339   	0.045000	1.15339   	0.045000	1.15339   	0.045000	1.23084   	0.045000	0.0321314 	
0.050000	5.31857   	0.050000	1.35221   	0.050000	1.21967   	0.050000	1.21967   	0.050000	1.21967   	0.050000	1.3222    	0.050000	0.0300093 	
0.055000	5.55018   	0.055000	1.42347   	0.055000	1.2837    	0.055000	1.2837    	0.055000	1.2837    	0.055000	1.39529   	0.055000	0.028184  	
0.060000	5.74746   	0.060000	1.49122   	0.060000	1.34548   	0.060000	1.34548   	0.060000	1.34549   	0.060000	1.46462   	0.060000	0.0265947 	
0.070000	6.04882   	0.070000	1.61648   	0.070000	1.46243   	0.070000	1.46243   	0.070000	1.46243   	0.070000	1.59253   	0.070000	0.0239556 	
0.080000	6.37217   	0.080000	1.71005   	0.080000	1.57076   	0.080000	1.57076   	0.080000	1.57076   	0.080000	1.6882    	0.080000	0.0218461 	
0.090000	6.62619   	0.090000	1.79187   	0.090000	1.67082   	0.090000	1.67082   	0.090000	1.67082   	0.090000	1.77175   	0.090000	0.0201158 	
0.100000	6.82993   	0.100000	1.86012   	0.100000	1.76281   	0.100000	1.76281   	0.100000	1.76281   	0.100000	1.84163   	0.100000	0.0184939 	
0.120000	6.95369   	0.120000	2.02209   	0.120000	1.92515   	0.120000	1.92515   	0.120000	1.92515   	0.120000	2.00587   	0.120000	0.0162249 	
0.140000	7.00287   	0.140000	2.15101   	0.140000	2.06098   	0.140000	2.06098   	0.140000	2.06098   	0.140000	2.13651   	0.140000	0.0144965 	
0.160000	7.02029   	0.160000	2.24723   	0.160000	2.1737    	0.160000	2.1737    	0.160000	2.17371   	0.160000	2.23409   	0.160000	0.0131312 	
0.180000	7.01882   	0.180000	2.31723   	0.180000	2.26654   	0.180000	2.26654   	0.180000	2.26654   	0.180000	2.3052    	0.180000	0.0120224 	
0.200000	7.03417   	0.200000	2.37095   	0.200000	2.3424    	0.200000	2.3424    	0.200000	2.34241   	0.200000	2.35985   	0.200000	0.0111022 	
0.250000	6.9058    	0.250000	2.47003   	0.250000	2.47406   	0.250000	2.47406   	0.250000	2.47406   	0.250000	2.46067   	0.250000	0.00935953	
0.300000	6.93417   	0.300000	2.56269   	0.300000	2.54694   	0.300000	2.54694   	0.300000	2.54695   	0.300000	2.55457   	0.300000	0.00812493	
0.350000	6.98614   	0.350000	2.62614   	0.350000	2.58255   	0.350000	2.58255   	0.350000	2.58255   	0.350000	2.61894   	0.350000	0.00719999	
0.400000	6.97394   	0.400000	2.6519    	0.400000	2.60131   	0.400000	2.60131   	0.400000	2.60131   	0.400000	2.64542   	0.400000	0.00647869	
0.450000	6.93545   	0.450000	2.66136   	0.450000	2.61846   	0.450000	2.61846   	0.450000	2.61847   	0.450000	2.65546   	0.450000	0.00589895	
0.500000	6.91602   	0.500000	2.67614   	0.500000	2.62086   	0.500000	2.62086   	0.500000	2.62086   	0.500000	2.67072   	0.500000	0.00542185	
0.600000	6.6087    	0.600000	2.68915   	0.600000	2.59986   	0.600000	2.59986   	0.600000	2.59986   	0.600000	2.68447   	0.600000	0.00468087	
0.700000	6.26348   	0.700000	2.6858    	0.700000	2.55491   	0.700000	2.55491   	0.700000	2.55491   	0.700000	2.68167   	0.700000	0.00413005	
0.800000	6.13024   	0.800000	2.66295   	0.800000	2.50376   	0.800000	2.50376   	0.800000	2.50376   	0.800000	2.65925   	0.800000	0.00370315	
0.900000	5.98304   	0.900000	2.63412   	0.900000	2.45148   	0.900000	2.45148   	0.900000	2.45148   	0.900000	2.63075   	0.900000	0.00336174	
1.000000	5.82829   	1.000000	2.60053   	1.000000	2.39957   	1.000000	2.39957   	1.000000	2.39957   	1.000000	2.59745   	1.000000	0.00308197	
1.250000	5.38646   	1.250000	2.45373   	1.250000	2.27144   	1.250000	2.27144   	1.250000	2.27144   	1.250000	2.45117   	1.250000	0.00256113	
1.500000	4.93154   	1.500000	2.29285   	1.500000	2.14759   	1.500000	2.14759   	1.500000	2.14759   	1.500000	2.29065   	1.500000	0.00219934	
1.750000	4.54334   	1.750000	2.1502    	1.750000	2.03899   	1.750000	2.03899   	1.750000	2.03899   	1.750000	2.14827   	1.750000	0.0019323 	
2.000000	4.18214   	2.000000	2.0114    	2.000000	1.94178   	2.000000	1.94178   	2.000000	1.94179   	2.000000	2.00967   	2.000000	0.0017265 	
2.250000	3.8817    	2.250000	1.89627   	2.250000	1.85387   	2.250000	1.85387   	2.250000	1.85387   	2.250000	1.8947    	2.250000	0.00156269	
2.500000	3.61506   	2.500000	1.79635   	2.500000	1.77387   	2.500000	1.77387   	2.500000	1.77387   	2.500000	1.79492   	2.500000	0.00142898	
3.000000	3.22152   	3.000000	1.62934   	3.000000	1.63373   	3.000000	1.63373   	3.000000	1.63373   	3.000000	1.62812   	3.000000	0.00122335	
3.500000	2.90887   	3.500000	1.49281   	3.500000	1.51526   	3.500000	1.51526   	3.500000	1.51527   	3.500000	1.49173   	3.500000	0.00107216	
4.000000	2.65443   	4.000000	1.37875   	4.000000	1.41402   	4.000000	1.41402   	4.000000	1.41402   	4.000000	1.37779   	4.000000	0.000956012	
4.500000	2.44324   	4.500000	1.28161   	4.500000	1.32661   	4.500000	1.32661   	4.500000	1.32661   	4.500000	1.28075   	4.500000	0.000863799	
5.000000	2.26502   	5.000000	1.19751   	5.000000	1.25044   	5.000000	1.25044   	5.000000	1.25044   	5.000000	1.19672   	5.000000	0.000788699	
5.500000	2.11254   	5.500000	1.14244   	5.500000	1.18349   	5.500000	1.18349   	5.500000	1.18349   	5.500000	1.14172   	5.500000	0.000726276	
6.000000	1.98053   	6.000000	1.09394   	6.000000	1.12416   	6.000000	1.12416   	6.000000	1.12416   	6.000000	1.09327   	6.000000	0.000673516	
6.500000	1.86508   	6.500000	1.05085   	6.500000	1.07123   	6.500000	1.07123   	6.500000	1.07123   	6.500000	1.05022   	6.500000	0.000628298	
7.000000	1.76322   	7.000000	1.0123    	7.000000	1.02368   	7.000000	1.02368   	7.000000	1.02368   	7.000000	1.01171   	7.000000	0.000589087	
7.500000	1.67266   	7.500000	0.971866  	7.500000	0.980727  	7.500000	0.980727  	7.500000	0.980728  	7.500000	0.971312  	7.500000	0.000554739	
8.000000	1.59158   	8.000000	0.935168  	8.000000	0.941714  	8.000000	0.941714  	8.000000	0.941715  	8.000000	0.934644  	8.000000	0.000524386	
8.500000	1.51855   	8.500000	0.901693  	8.500000	0.90611   	8.500000	0.90611   	8.500000	0.906111  	8.500000	0.901195  	8.500000	0.000497358	
9.000000	1.45241   	9.000000	0.871021  	9.000000	0.873473  	9.000000	0.873473  	9.000000	0.873474  	9.000000	0.870548  	9.000000	0.000473126	
9.500000	1.39222   	9.500000	0.842804  	9.500000	0.843437  	9.500000	0.843437  	9.500000	0.843438  	9.500000	0.842353  	9.500000	0.000451272	
10.000000	1.33719   	10.000000	0.822274  	10.000000	0.815693  	10.000000	0.815693  	10.000000	0.815694  	10.000000	0.821842  	10.000000	0.000431454	
11.000000	1.24016   	11.000000	0.775942  	11.000000	0.767545  	11.000000	0.768361  	11.000000	0.767739  	11.000000	0.775546  	11.000000	0.000396869	
12.000000	1.15727   	12.000000	0.73433   	12.000000	0.725327  	12.000000	0.726677  	12.000000	0.725608  	12.000000	0.733962  	12.000000	0.000367678	
13.000000	1.0856    	13.000000	0.696901  	13.000000	0.687961  	13.000000	0.689657  	13.000000	0.688268  	13.000000	0.696558  	13.000000	0.000342691	
14.000000	1.02299   	14.000000	0.663142  	14.000000	0.654616  	14.000000	0.656537  	14.000000	0.654922  	14.000000	0.662821  	14.000000	0.000321046	
15.000000	0.967789  	15.000000	0.63259   	15.000000	0.624645  	15.000000	0.626713  	15.000000	0.624947  	15.000000	0.632288  	15.000000	0.000302106	
16.000000	0.918748  	16.000000	0.604842  	16.000000	0.597567  	16.000000	0.599701  	16.000000	0.59784   	16.000000	0.604557  	16.000000	0.000285383	
17.000000	0.874874  	17.000000	0.579549  	17.000000	0.572967  	17.000000	0.575106  	17.000000	0.573195  	17.000000	0.579279  	17.000000	0.000270505	
18.000000	0.835377  	18.000000	0.556414  	18.000000	0.550475  	18.000000	0.552604  	18.000000	0.550672  	18.000000	0.556156  	18.000000	0.000257177	
19.000000	0.799626  	19.000000	0.535179  	19.000000	0.529695  	19.000000	0.531808  	19.000000	0.529882  	19.000000	0.534934  	19.000000	0.000245164	
20.000000	0.767103  	20.000000	0.515626  	20.000000	0.51068   	20.000000	0.512742  	20.000000	0.510847  	20.000000	0.515391  	20.000000	0.000234279	
21.000000	0.737382  	21.000000	0.497566  	21.000000	0.493109  	21.000000	0.495094  	21.000000	0.493237  	21.000000	0.497341  	21.000000	0.000224366	
22.000000	0.710112  	22.000000	0.480837  	22.000000	0.4768    	22.000000	0.478703  	22.000000	0.476903  	22.000000	0.480621  	22.000000	0.0002153 	
23.000000	0.684997  	23.000000	0.465299  	23.000000	0.461608  	23.000000	0.463435  	23.000000	0.461695  	23.000000	0.465092  	23.000000	0.000206974	
24.000000	0.661786  	24.000000	0.450829  	24.000000	0.447414  	24.000000	0.449171  	24.000000	0.447501  	24.000000	0.45063   	24.000000	0.000199299	
25.000000	0.640267  	25.000000	0.437323  	25.000000	0.434123  	25.000000	0.435811  	25.000000	0.434214  	25.000000	0.437131  	25.000000	0.000192201	
27.000000	0.601606  	27.000000	0.41284   	27.000000	0.409931  	27.000000	0.411462  	27.000000	0.410021  	27.000000	0.412661  	27.000000	0.00017949	
29.000000	0.567839  	29.000000	0.391234  	29.000000	0.388475  	29.000000	0.389812  	29.000000	0.388534  	29.000000	0.391066  	29.000000	0.00016843	
31.000000	0.538078  	31.000000	0.372025  	31.000000	0.369481  	31.000000	0.370576  	31.000000	0.369516  	31.000000	0.371867  	31.000000	0.000158715	
33.000000	0.511639  	33.000000	0.354835  	33.000000	0.352641  	33.000000	0.353514  	33.000000	0.352689  	33.000000	0.354684  	33.000000	0.00015011	
35.000000	0.487986  	35.000000	0.339358  	35.000000	0.337509  	35.000000	0.338187  	35.000000	0.337556  	35.000000	0.339215  	35.000000	0.000142433	
38.000000	0.456822  	38.000000	0.318831  	38.000000	0.317465  	38.000000	0.317894  	38.000000	0.317497  	38.000000	0.318699  	38.000000	0.000132346	
41.000000	0.429883  	41.000000	0.300967  	41.000000	0.30004   	41.000000	0.300256  	41.000000	0.30004   	41.000000	0.300844  	41.000000	0.000123655	
44.000000	0.406349  	44.000000	0.285276  	44.000000	0.28468   	44.000000	0.284771  	44.000000	0.284696  	44.000000	0.28516   	44.000000	0.000116083	
47.000000	0.385603  	47.000000	0.27138   	47.000000	0.2711    	47.000000	0.271056  	47.000000	0.271094  	47.000000	0.27127   	47.000000	0.000109424	
50.000000	0.367168  	50.000000	0.258985  	50.000000	0.25897   	50.000000	0.258818  	50.000000	0.258948  	50.000000	0.258881  	50.000000	0.000103521	
55.000000	0.340603  	55.000000	0.241049  	55.000000	0.241354  	55.000000	0.241094  	55.000000	0.24134   	55.000000	0.240954  	55.000000	9.5038e-05	
60.000000	0.318163  	60.000000	0.225838  	60.000000	0.226381  	60.000000	0.22604   	60.000000	0.22637   	60.000000	0.22575   	60.000000	8.78944e-05	
65.000000	0.298941  	65.000000	0.212769  	65.000000	0.213462  	65.000000	0.213083  	65.000000	0.213474  	65.000000	0.212687  	65.000000	8.17925e-05	
70.000000	0.282278  	70.000000	0.201414  	70.000000	0.202255  	70.000000	0.201806  	70.000000	0.202243  	70.000000	0.201337  	70.000000	7.65169e-05	
75.000000	0.267685  	75.000000	0.191453  	75.000000	0.19236   	75.000000	0.191896  	75.000000	0.192367  	75.000000	0.191381  	75.000000	7.19082e-05	
80.000000	0.254792  	80.000000	0.182643  	80.000000	0.18362   	80.000000	0.183114  	80.000000	0.183611  	80.000000	0.182575  	80.000000	6.78458e-05	
85.000000	0.243313  	85.000000	0.174793  	85.000000	0.175788  	85.000000	0.175276  	85.000000	0.175792  	85.000000	0.174729  	85.000000	6.42366e-05	
90.000000	0.233021  	90.000000	0.167752  	90.000000	0.168779  	90.000000	0.168234  	90.000000	0.168765  	90.000000	0.167691  	90.000000	6.10079e-05	
95.000000	0.223739  	95.000000	0.161401  	95.000000	0.162418  	95.000000	0.161872  	95.000000	0.162413  	95.000000	0.161343  	95.000000	5.81016e-05	
100.000000	0.21532   	100.000000	0.155641  	100.000000	0.156641  	100.000000	0.156094  	100.000000	0.156644  	100.000000	0.155586  	100.000000	5.54711e-05	
105.000000	0.207647  	105.000000	0.150394  	105.000000	0.151368  	105.000000	0.150822  	105.000000	0.151377  	105.000000	0.150341  	105.000000	5.30784e-05	
110.000000	0.200624  	110.000000	0.145593  	110.000000	0.146558  	110.000000	0.145993  	110.000000	0.146552  	110.000000	0.145542  	110.000000	5.08921e-05	
115.000000	0.194168  	115.000000	0.141183  	115.000000	0.142123  	115.000000	0.141551  	115.000000	0.142112  	115.000000	0.141134  	115.000000	4.88863e-05	
120.000000	0.188213  	120.000000	0.137118  	120.000000	0.138019  	120.000000	0.137451  	120.000000	0.138015  	120.000000	0.137071  	120.000000	4.70392e-05	
125.000000	0.1827    	125.000000	0.133358  	125.000000	0.134222  	125.000000	0.133656  	125.000000	0.13422   	125.000000	0.133313  	125.000000	4.53325e-05	
130.000000	0.177582  	130.000000	0.12987   	130.000000	0.130696  	130.000000	0.130131  	130.000000	0.130696  	130.000000	0.129827  	130.000000	4.37504e-05	
135.000000	0.172815  	135.000000	0.126626  	135.000000	0.127412  	135.000000	0.12685   	135.000000	0.127413  	135.000000	0.126584  	135.000000	4.22797e-05	
140.000000	0.168365  	140.000000	0.123601  	140.000000	0.124347  	140.000000	0.123787  	140.000000	0.124349  	140.000000	0.12356   	140.000000	4.09087e-05	
145.000000	0.164199  	145.000000	0.120772  	145.000000	0.121479  	145.000000	0.120921  	145.000000	0.121482  	145.000000	0.120733  	145.000000	3.96276e-05	
150.000000	0.160291  	150.000000	0.118122  	150.000000	0.11879   	150.000000	0.118234  	150.000000	0.118793  	150.000000	0.118084  	150.000000	3.84277e-05	
155.000000	0.154789  	155.000000	0.115634  	155.000000	0.116263  	155.000000	0.115709  	155.000000	0.116266  	155.000000	0.115597  	155.000000	3.73013e-05	
160.000000	0.151563  	160.000000	0.113293  	160.000000	0.113884  	160.000000	0.113332  	160.000000	0.113887  	160.000000	0.113257  	160.000000	3.62419e-05	
165.000000	0.148522  	165.000000	0.111087  	165.000000	0.11164   	165.000000	0.111091  	165.000000	0.111644  	165.000000	0.111052  	165.000000	3.52435e-05	
170.000000	0.145649  	170.000000	0.109004  	170.000000	0.109521  	170.000000	0.108973  	170.000000	0.109524  	170.000000	0.10897   	170.000000	3.43009e-05	
175.000000	0.14293   	175.000000	0.107035  	175.000000	0.107516  	175.000000	0.10697   	175.000000	0.107519  	175.000000	0.107002  	175.000000	3.34096e-05	
180.000000	0.140354  	180.000000	0.10517   	180.000000	0.105615  	180.000000	0.105072  	180.000000	0.105618  	180.000000	0.105137  	180.000000	3.25653e-05	
185.000000	0.137908  	185.000000	0.103401  	185.000000	0.103812  	185.000000	0.103271  	185.000000	0.103814  	185.000000	0.103369  	185.000000	3.17644e-05	
190.000000	0.135585  	190.000000	0.101721  	190.000000	0.102099  	190.000000	0.10156   	190.000000	0.102101  	190.000000	0.10169   	190.000000	3.10036e-05	
195.000000	0.133373  	195.000000	0.100123  	195.000000	0.100469  	195.000000	0.0999325 	195.000000	0.100471  	195.000000	0.100092  	195.000000	3.028e-05 	
200.000000	0.131266  	200.000000	0.0986014 	200.000000	0.0989167 	200.000000	0.0983821 	200.000000	0.0989176 	200.000000	0.0985718 	200.000000	2.95908e-05	
210.000000	0.127336  	210.000000	0.0957671 	210.000000	0.0960232 	210.000000	0.0954926 	210.000000	0.0960232 	210.000000	0.0957388 	210.000000	2.8306e-05	
220.000000	0.123744  	220.000000	0.0931805 	220.000000	0.093381  	220.000000	0.0928544 	220.000000	0.0933797 	220.000000	0.0931533 	220.000000	2.71326e-05	
230.000000	0.120448  	230.000000	0.0908105 	230.000000	0.0909593 	230.000000	0.0904363 	230.000000	0.0909568 	230.000000	0.0907844 	230.000000	2.60564e-05	
240.000000	0.117413  	240.000000	0.0886311 	240.000000	0.0887311 	240.000000	0.0882123 	240.000000	0.0887278 	240.000000	0.088606  	240.000000	2.50656e-05	
250.000000	0.114608  	250.000000	0.0866204 	250.000000	0.0866771 	250.000000	0.0861601 	250.000000	0.086671  	250.000000	0.0865962 	250.000000	2.41504e-05	
260.000000	0.112009  	260.000000	0.0847596 	260.000000	0.084769  	260.000000	0.0842608 	260.000000	0.0847672 	260.000000	0.0847363 	260.000000	2.33023e-05	
270.000000	0.109593  	270.000000	0.0830328 	270.000000	0.0829944 	270.000000	0.0824983 	270.000000	0.0830004 	270.000000	0.0830103 	270.000000	2.25141e-05	
280.000000	0.107342  	280.000000	0.0814261 	280.000000	0.0813526 	280.000000	0.0808586 	280.000000	0.0813563 	280.000000	0.0814044 	280.000000	2.17795e-05	
290.000000	0.10524   	290.000000	0.0799276 	290.000000	0.0798211 	290.000000	0.0793295 	290.000000	0.0798234 	290.000000	0.0799065 	290.000000	2.10933e-05	
300.000000	0.103271  	300.000000	0.0785269 	300.000000	0.078389  	300.000000	0.0779005 	300.000000	0.0783902 	300.000000	0.0785064 	300.000000	2.04507e-05	
310.000000	0.101425  	310.000000	0.0772148 	310.000000	0.0770484 	310.000000	0.0765622 	310.000000	0.0770483 	310.000000	0.0771949 	310.000000	1.98476e-05	
320.000000	0.0996896 	320.000000	0.0759833 	320.000000	0.0757903 	320.000000	0.0753066 	320.000000	0.075789  	320.000000	0.075964  	320.000000	1.92804e-05	
330.000000	0.0980555 	330.000000	0.0748254 	330.000000	0.0746074 	330.000000	0.0741264 	330.000000	0.0746053 	330.000000	0.0748067 	330.000000	1.87461e-05	
340.000000	0.0965143 	340.000000	0.0737348 	340.000000	0.0734943 	340.000000	0.0730152 	340.000000	0.0734909 	340.000000	0.0737166 	340.000000	1.82418e-05	
350.000000	0.0950584 	350.000000	0.072706  	350.000000	0.0724452 	350.000000	0.0719674 	350.000000	0.0724397 	350.000000	0.0726883 	350.000000	1.77649e-05	
360.000000	0.0936809 	360.000000	0.071734  	360.000000	0.0714501 	360.000000	0.0709779 	360.000000	0.071447  	360.000000	0.0717167 	360.000000	1.73133e-05	
370.000000	0.0923759 	370.000000	0.0708143 	370.000000	0.0705059 	370.000000	0.0700421 	370.000000	0.0705083 	370.000000	0.0707974 	370.000000	1.6885e-05	
380.000000	0.0911379 	380.000000	0.0699429 	380.000000	0.0696155 	380.000000	0.0691559 	380.000000	0.0696191 	380.000000	0.0699265 	380.000000	1.64782e-05	
390.000000	0.089962  	390.000000	0.0691164 	390.000000	0.0687744 	390.000000	0.0683156 	390.000000	0.068776  	390.000000	0.0691003 	390.000000	1.60914e-05	
400.000000	0.0888437 	400.000000	0.0683313 	400.000000	0.0679754 	400.000000	0.067518  	400.000000	0.0679758 	400.000000	0.0683156 	400.000000	1.5723e-05	
