Energy (MeV/u)1	0 - [He-base] F.Hubert et al, AD&ND Tables 46(1990)1	Energy (MeV/u)2	1 - [H -base] J.F.Ziegler et al, Pergamon Press, NY (low energy)	Energy (MeV/u)3	2 - ATIMA 1.2  LS-theory (recommended for high energy)	Energy (MeV/u)4	3 - ATIMA 1.2  without LS-correction	Energy (MeV/u)5	4 - electrical component of [1] - J.F.Ziegler et al	Energy (MeV/u)6	5 - nuclear component of [1] - J.F.Ziegler et al	
0.001000	0.987438  	0.001000	0.987438  	0.001000	1.1225    	0.001000	1.1225    	0.001000	0.556434  	0.001000	0.431005  	
0.002000	1.07795   	0.002000	1.07795   	0.002000	1.23769   	0.002000	1.23769   	0.002000	0.721605  	0.002000	0.356343  	
0.005000	1.2583    	0.005000	1.2583    	0.005000	1.45539   	0.005000	1.45539   	0.005000	1.01748   	0.005000	0.24082   	
0.008000	1.40042   	0.008000	1.40042   	0.008000	1.61858   	0.008000	1.61858   	0.008000	1.21359   	0.008000	0.186833  	
0.010000	1.48341   	0.010000	1.48341   	0.010000	1.71194   	0.010000	1.71194   	0.010000	1.31951   	0.010000	0.163898  	
0.015000	1.70938   	0.015000	1.70938   	0.015000	1.94429   	0.015000	1.94429   	0.015000	1.58211   	0.015000	0.127269  	
0.020000	2.08226   	0.020000	2.08226   	0.020000	2.27661   	0.020000	2.27661   	0.020000	1.97699   	0.020000	0.105267  	
0.025000	2.442     	0.025000	2.442     	0.025000	2.60456   	0.025000	2.60456   	0.025000	2.35162   	0.025000	0.0903847 	
0.030000	2.78331   	0.030000	2.78331   	0.030000	2.88785   	0.030000	2.88785   	0.030000	2.70376   	0.030000	0.0795564 	
0.035000	3.1016    	0.035000	3.1016    	0.035000	3.15149   	0.035000	3.15149   	0.035000	3.03097   	0.035000	0.0706263 	
0.040000	3.39564   	0.040000	3.39564   	0.040000	3.39672   	0.040000	3.39672   	0.040000	3.33151   	0.040000	0.0641368 	
0.045000	3.66331   	0.045000	3.66331   	0.045000	3.62289   	0.045000	3.62289   	0.045000	3.60446   	0.045000	0.0588443 	
0.050000	3.90422   	0.050000	3.90422   	0.050000	3.83036   	0.050000	3.83036   	0.050000	3.84978   	0.050000	0.0544362 	
0.055000	4.11884   	0.055000	4.11884   	0.055000	4.01968   	0.055000	4.01968   	0.055000	4.06814   	0.055000	0.0507016 	
0.060000	4.30828   	0.060000	4.30828   	0.060000	4.19157   	0.060000	4.19157   	0.060000	4.26079   	0.060000	0.0474925 	
0.070000	4.6182    	0.070000	4.6182    	0.070000	4.48658   	0.070000	4.48658   	0.070000	4.57595   	0.070000	0.0422507 	
0.080000	4.84922   	0.080000	4.84922   	0.080000	4.72321   	0.080000	4.72321   	0.080000	4.81108   	0.080000	0.0381388 	
0.090000	5.01978   	0.090000	5.01978   	0.090000	4.90984   	0.090000	4.90984   	0.090000	4.98497   	0.090000	0.034818  	
0.100000	5.14994   	0.100000	5.14994   	0.100000	5.05463   	0.100000	5.05463   	0.100000	5.11787   	0.100000	0.0320744 	
0.120000	5.30689   	0.120000	5.30689   	0.120000	5.24772   	0.120000	5.24772   	0.120000	5.27909   	0.120000	0.0277931 	
0.140000	5.38039   	0.140000	5.38039   	0.140000	5.35121   	0.140000	5.35121   	0.140000	5.3558    	0.140000	0.0245941 	
0.160000	5.40523   	0.160000	5.40523   	0.160000	5.39914   	0.160000	5.39914   	0.160000	5.38312   	0.160000	0.0221046 	
0.180000	5.38753   	0.180000	5.38753   	0.180000	5.41376   	0.180000	5.41376   	0.180000	5.36742   	0.180000	0.0201069 	
0.200000	5.36499   	0.200000	5.36499   	0.200000	5.40897   	0.200000	5.40897   	0.200000	5.34652   	0.200000	0.0184653 	
0.250000	5.30585   	0.250000	5.30585   	0.250000	5.35933   	0.250000	5.35933   	0.250000	5.29046   	0.250000	0.0153976 	
0.300000	5.32557   	0.300000	5.32557   	0.300000	5.29363   	0.300000	5.29363   	0.300000	5.31232   	0.300000	0.0132571 	
0.350000	5.35674   	0.350000	5.35674   	0.350000	5.22675   	0.350000	5.22675   	0.350000	5.34507   	0.350000	0.0116718 	
0.400000	5.33506   	0.400000	5.33506   	0.400000	5.16863   	0.400000	5.16863   	0.400000	5.32461   	0.400000	0.0104467 	
0.450000	5.29361   	0.450000	5.29361   	0.450000	5.14625   	0.450000	5.14625   	0.450000	5.28414   	0.450000	0.00946937	
0.500000	5.26896   	0.500000	5.26896   	0.500000	5.1114    	0.500000	5.1114    	0.500000	5.26029   	0.500000	0.00867007	
0.600000	5.20363   	0.600000	5.20363   	0.600000	5.01763   	0.600000	5.01763   	0.600000	5.19619   	0.600000	0.00743795	
0.700000	5.11496   	0.700000	5.11496   	0.700000	4.89313   	0.700000	4.89313   	0.700000	5.10843   	0.700000	0.00652967	
0.800000	5.0043    	0.800000	5.0043    	0.800000	4.76174   	0.800000	4.76174   	0.800000	4.99847   	0.800000	0.00583041	
0.900000	4.88743   	0.900000	4.88743   	0.900000	4.63143   	0.900000	4.63143   	0.900000	4.88216   	0.900000	0.00527427	
1.000000	4.76829   	1.000000	4.76829   	1.000000	4.50405   	1.000000	4.50405   	1.000000	4.76347   	1.000000	0.00482066	
1.250000	4.44114   	1.250000	4.44114   	1.250000	4.19806   	1.250000	4.19806   	1.250000	4.43716   	1.250000	0.0039816 	
1.500000	4.09884   	1.500000	4.09884   	1.500000	3.91167   	1.500000	3.91167   	1.500000	4.09544   	1.500000	0.00340316	
1.750000	3.80931   	1.750000	3.80931   	1.750000	3.66623   	1.750000	3.66623   	1.750000	3.80633   	1.750000	0.00297871	
2.000000	3.53638   	2.000000	3.53638   	2.000000	3.45175   	2.000000	3.45175   	2.000000	3.53373   	2.000000	0.00265314	
2.250000	3.30513   	2.250000	3.30513   	2.250000	3.26209   	2.250000	3.26209   	2.250000	3.30274   	2.250000	0.00239503	
2.500000	3.15886   	2.500000	3.1104    	2.500000	3.09298   	2.500000	3.09298   	2.500000	3.10822   	2.500000	0.00218505	
3.000000	2.84994   	3.000000	2.796     	3.000000	2.80429   	3.000000	2.80429   	3.000000	2.79414   	3.000000	0.00186345	
3.500000	2.59715   	3.500000	2.54806   	3.500000	2.56711   	3.500000	2.56711   	3.500000	2.54643   	3.500000	0.0016281 	
4.000000	2.38705   	4.000000	2.34653   	4.000000	2.36893   	4.000000	2.36893   	4.000000	2.34508   	4.000000	0.00144798	
4.500000	2.20989   	4.500000	2.17863   	4.500000	2.20095   	4.500000	2.20095   	4.500000	2.17732   	4.500000	0.00130543	
5.000000	2.05856   	5.000000	2.03587   	5.000000	2.05678   	5.000000	2.05678   	5.000000	2.03468   	5.000000	0.00118965	
5.500000	1.9278    	5.500000	1.91263   	5.500000	1.93168   	5.500000	1.93168   	5.500000	1.91153   	5.500000	0.00109364	
6.000000	1.8137    	6.000000	1.80494   	6.000000	1.82207   	6.000000	1.82207   	6.000000	1.80393   	6.000000	0.00101267	
6.500000	1.71323   	6.500000	1.70992   	6.500000	1.72523   	6.500000	1.72523   	6.500000	1.70898   	6.500000	0.000943396	
7.000000	1.62409   	7.000000	1.62538   	7.000000	1.63901   	7.000000	1.63901   	7.000000	1.6245    	7.000000	0.000883427	
7.500000	1.54444   	7.500000	1.54961   	7.500000	1.56174   	7.500000	1.56174   	7.500000	1.54878   	7.500000	0.000830977	
8.000000	1.47283   	8.000000	1.48129   	8.000000	1.49205   	8.000000	1.49205   	8.000000	1.4805    	8.000000	0.000784693	
8.500000	1.40809   	8.500000	1.41933   	8.500000	1.42888   	8.500000	1.42888   	8.500000	1.41858   	8.500000	0.000743532	
9.000000	1.34926   	9.000000	1.36286   	9.000000	1.37132   	9.000000	1.37132   	9.000000	1.36215   	9.000000	0.000706674	
9.500000	1.29556   	9.500000	1.31117   	9.500000	1.31864   	9.500000	1.31864   	9.500000	1.31049   	9.500000	0.000673468	
10.000000	1.24634   	10.000000	1.26934   	10.000000	1.27024   	10.000000	1.27024   	10.000000	1.2687    	10.000000	0.000643388	
11.000000	1.15923   	11.000000	1.18386   	11.000000	1.18237   	11.000000	1.18331   	11.000000	1.18327   	11.000000	0.000590969	
12.000000	1.08451   	12.000000	1.10963   	12.000000	1.10651   	12.000000	1.10806   	12.000000	1.10908   	12.000000	0.000546802	
13.000000	1.01967   	13.000000	1.04461   	13.000000	1.04031   	13.000000	1.04225   	13.000000	1.0441    	13.000000	0.000509054	
14.000000	0.962851  	14.000000	0.987202  	14.000000	0.981977  	14.000000	0.984175  	14.000000	0.986726  	14.000000	0.000476401	
15.000000	0.912624  	15.000000	0.936157  	15.000000	0.930148  	15.000000	0.932514  	15.000000	0.935709  	15.000000	0.000447864	
16.000000	0.867888  	16.000000	0.890475  	16.000000	0.883796  	16.000000	0.886237  	16.000000	0.890053  	16.000000	0.000422698	
17.000000	0.827774  	17.000000	0.849357  	17.000000	0.84208   	17.000000	0.844526  	17.000000	0.848957  	17.000000	0.000400332	
18.000000	0.791591  	18.000000	0.812151  	18.000000	0.804284  	18.000000	0.806721  	18.000000	0.811771  	18.000000	0.000380316	
19.000000	0.758776  	19.000000	0.778324  	19.000000	0.76987   	19.000000	0.772286  	19.000000	0.777962  	19.000000	0.000362293	
20.000000	0.728873  	20.000000	0.747434  	20.000000	0.738424  	20.000000	0.740782  	20.000000	0.747088  	20.000000	0.000345976	
21.000000	0.701503  	21.000000	0.719113  	21.000000	0.709571  	21.000000	0.711841  	21.000000	0.718782  	21.000000	0.000331128	
22.000000	0.676351  	22.000000	0.693051  	22.000000	0.682979  	22.000000	0.685157  	22.000000	0.692734  	22.000000	0.000317559	
23.000000	0.653154  	23.000000	0.668988  	23.000000	0.658381  	23.000000	0.660472  	23.000000	0.668683  	23.000000	0.000305106	
24.000000	0.631687  	24.000000	0.6467    	24.000000	0.635555  	24.000000	0.637565  	24.000000	0.646407  	24.000000	0.000293635	
25.000000	0.61176   	25.000000	0.625997  	25.000000	0.614318  	25.000000	0.616249  	25.000000	0.625714  	25.000000	0.000283034	
27.000000	0.575896  	27.000000	0.588707  	27.000000	0.576012  	27.000000	0.577762  	27.000000	0.588442  	27.000000	0.000264066	
29.000000	0.544503  	29.000000	0.556046  	29.000000	0.542427  	29.000000	0.543957  	29.000000	0.555798  	29.000000	0.00024758	
31.000000	0.51678   	31.000000	0.527195  	31.000000	0.513773  	31.000000	0.515026  	31.000000	0.526962  	31.000000	0.000233115	
33.000000	0.492106  	33.000000	0.501518  	33.000000	0.489212  	33.000000	0.49021   	33.000000	0.501297  	33.000000	0.000220314	
35.000000	0.469994  	35.000000	0.478513  	35.000000	0.467199  	35.000000	0.467974  	35.000000	0.478304  	35.000000	0.000208902	
38.000000	0.440805  	38.000000	0.448161  	38.000000	0.438133  	38.000000	0.438625  	38.000000	0.447967  	38.000000	0.000193926	
41.000000	0.415517  	41.000000	0.42189   	41.000000	0.412956  	41.000000	0.413204  	41.000000	0.421709  	41.000000	0.000181035	
44.000000	0.393384  	44.000000	0.398919  	44.000000	0.390854  	44.000000	0.390958  	44.000000	0.39875   	44.000000	0.000169816	
47.000000	0.373837  	47.000000	0.378658  	47.000000	0.371368  	47.000000	0.371317  	47.000000	0.378498  	47.000000	0.00015996	
50.000000	0.356439  	50.000000	0.360648  	50.000000	0.354015  	50.000000	0.353841  	50.000000	0.360496  	50.000000	0.00015123	
55.000000	0.331318  	55.000000	0.33469   	55.000000	0.328917  	55.000000	0.32862   	55.000000	0.334551  	55.000000	0.000138696	
60.000000	0.310049  	60.000000	0.312767  	60.000000	0.307673  	60.000000	0.307284  	60.000000	0.312639  	60.000000	0.000128154	
65.000000	0.291793  	65.000000	0.293996  	65.000000	0.28942   	65.000000	0.288986  	65.000000	0.293877  	65.000000	0.000119158	
70.000000	0.275939  	70.000000	0.277737  	70.000000	0.273626  	70.000000	0.273112  	70.000000	0.277625  	70.000000	0.000111389	
75.000000	0.262031  	75.000000	0.263511  	75.000000	0.259735  	75.000000	0.259204  	75.000000	0.263406  	75.000000	0.000104607	
80.000000	0.249724  	80.000000	0.250955  	80.000000	0.247491  	80.000000	0.246912  	80.000000	0.250857  	80.000000	9.86346e-05	
85.000000	0.238751  	85.000000	0.23979   	85.000000	0.236553  	85.000000	0.235967  	85.000000	0.239697  	85.000000	9.33323e-05	
90.000000	0.2289    	90.000000	0.229793  	90.000000	0.226781  	90.000000	0.226157  	90.000000	0.229705  	90.000000	8.85921e-05	
95.000000	0.220005  	95.000000	0.22079   	95.000000	0.217936  	95.000000	0.217311  	95.000000	0.220705  	95.000000	8.43281e-05	
100.000000	0.211928  	100.000000	0.212636  	100.000000	0.209919  	100.000000	0.209293  	100.000000	0.212556  	100.000000	8.04711e-05	
105.000000	0.20456   	105.000000	0.205217  	105.000000	0.202615  	105.000000	0.201991  	105.000000	0.20514   	105.000000	7.69647e-05	
110.000000	0.197808  	110.000000	0.198436  	110.000000	0.195958  	110.000000	0.195311  	110.000000	0.198362  	110.000000	7.37626e-05	
115.000000	0.191597  	115.000000	0.192214  	115.000000	0.189832  	115.000000	0.189178  	115.000000	0.192143  	115.000000	7.08263e-05	
120.000000	0.185862  	120.000000	0.186484  	120.000000	0.184174  	120.000000	0.183525  	120.000000	0.186416  	120.000000	6.81237e-05	
125.000000	0.180549  	125.000000	0.181189  	125.000000	0.178946  	125.000000	0.178298  	125.000000	0.181124  	125.000000	6.56275e-05	
130.000000	0.175612  	130.000000	0.176281  	130.000000	0.174097  	130.000000	0.173451  	130.000000	0.176218  	130.000000	6.33148e-05	
135.000000	0.171011  	135.000000	0.17172   	135.000000	0.169586  	135.000000	0.168943  	135.000000	0.171658  	135.000000	6.11657e-05	
140.000000	0.166713  	140.000000	0.167468  	140.000000	0.165381  	140.000000	0.164739  	140.000000	0.167409  	140.000000	5.91632e-05	
145.000000	0.162687  	145.000000	0.163496  	145.000000	0.16145   	145.000000	0.160811  	145.000000	0.163439  	145.000000	5.72926e-05	
150.000000	0.158908  	150.000000	0.159777  	150.000000	0.157767  	150.000000	0.157131  	150.000000	0.159721  	150.000000	5.55412e-05	
155.000000	0.153265  	155.000000	0.156287  	155.000000	0.15431   	155.000000	0.153676  	155.000000	0.156233  	155.000000	5.38978e-05	
160.000000	0.150143  	160.000000	0.153005  	160.000000	0.151059  	160.000000	0.150427  	160.000000	0.152953  	160.000000	5.23525e-05	
165.000000	0.147198  	165.000000	0.149914  	165.000000	0.147995  	165.000000	0.147366  	165.000000	0.149863  	165.000000	5.08967e-05	
170.000000	0.144414  	170.000000	0.146996  	170.000000	0.145103  	170.000000	0.144477  	170.000000	0.146947  	170.000000	4.95228e-05	
175.000000	0.141778  	175.000000	0.144239  	175.000000	0.142369  	175.000000	0.141745  	175.000000	0.144191  	175.000000	4.82239e-05	
180.000000	0.13928   	180.000000	0.141629  	180.000000	0.13978   	180.000000	0.139158  	180.000000	0.141582  	180.000000	4.6994e-05	
185.000000	0.136907  	185.000000	0.139154  	185.000000	0.137325  	185.000000	0.136706  	185.000000	0.139108  	185.000000	4.58276e-05	
190.000000	0.134651  	190.000000	0.136804  	190.000000	0.134994  	190.000000	0.134377  	190.000000	0.136759  	190.000000	4.472e-05 	
195.000000	0.132504  	195.000000	0.13457   	195.000000	0.132777  	195.000000	0.132163  	195.000000	0.134527  	195.000000	4.36666e-05	
200.000000	0.130457  	200.000000	0.132444  	200.000000	0.130668  	200.000000	0.130056  	200.000000	0.132401  	200.000000	4.26637e-05	
210.000000	0.126637  	210.000000	0.128485  	210.000000	0.126739  	210.000000	0.126132  	210.000000	0.128444  	210.000000	4.07948e-05	
220.000000	0.123144  	220.000000	0.124873  	220.000000	0.123155  	220.000000	0.122553  	220.000000	0.124834  	220.000000	3.90887e-05	
230.000000	0.119936  	230.000000	0.121566  	230.000000	0.119874  	230.000000	0.119276  	230.000000	0.121529  	230.000000	3.75246e-05	
240.000000	0.11698   	240.000000	0.118526  	240.000000	0.116858  	240.000000	0.116264  	240.000000	0.11849   	240.000000	3.60853e-05	
250.000000	0.114248  	250.000000	0.115723  	250.000000	0.114079  	250.000000	0.113487  	250.000000	0.115688  	250.000000	3.47563e-05	
260.000000	0.111714  	260.000000	0.11313   	260.000000	0.111501  	260.000000	0.11092   	260.000000	0.113096  	260.000000	3.35252e-05	
270.000000	0.109358  	270.000000	0.110724  	270.000000	0.109106  	270.000000	0.108539  	270.000000	0.110691  	270.000000	3.23815e-05	
280.000000	0.107162  	280.000000	0.108486  	280.000000	0.10689   	280.000000	0.106325  	280.000000	0.108455  	280.000000	3.1316e-05	
290.000000	0.10511   	290.000000	0.106399  	290.000000	0.104825  	290.000000	0.104262  	290.000000	0.106369  	290.000000	3.03209e-05	
300.000000	0.103188  	300.000000	0.10445   	300.000000	0.102894  	300.000000	0.102335  	300.000000	0.10442   	300.000000	2.93894e-05	
310.000000	0.101384  	310.000000	0.102624  	310.000000	0.101088  	310.000000	0.100532  	310.000000	0.102595  	310.000000	2.85154e-05	
320.000000	0.0996888 	320.000000	0.10091   	320.000000	0.0993941 	320.000000	0.0988407 	320.000000	0.100883  	320.000000	2.76938e-05	
330.000000	0.0980917 	330.000000	0.0992995 	330.000000	0.0978021 	330.000000	0.0972519 	330.000000	0.0992726 	330.000000	2.692e-05 	
340.000000	0.096585  	340.000000	0.0977828 	340.000000	0.0963047 	340.000000	0.0957567 	340.000000	0.0977566 	340.000000	2.61897e-05	
350.000000	0.0951613 	350.000000	0.0963522 	350.000000	0.0948939 	350.000000	0.0943474 	350.000000	0.0963267 	350.000000	2.54995e-05	
360.000000	0.093814  	360.000000	0.0950008 	360.000000	0.0935572 	360.000000	0.093017  	360.000000	0.0949759 	360.000000	2.4846e-05	
370.000000	0.0925373 	370.000000	0.0937223 	370.000000	0.0922899 	370.000000	0.0917593 	370.000000	0.0936981 	370.000000	2.42263e-05	
380.000000	0.0913258 	380.000000	0.0925113 	380.000000	0.0910946 	380.000000	0.0905688 	380.000000	0.0924877 	380.000000	2.3638e-05	
390.000000	0.0901749 	390.000000	0.0913626 	390.000000	0.0899652 	390.000000	0.0894404 	390.000000	0.0913395 	390.000000	2.30785e-05	
400.000000	0.0890803 	400.000000	0.0902717 	400.000000	0.088893  	400.000000	0.0883697 	400.000000	0.0902492 	400.000000	2.25459e-05	
410.000000	0.0880379 	410.000000	0.0892346 	410.000000	0.0878734 	410.000000	0.0873524 	410.000000	0.0892126 	410.000000	2.20382e-05	
420.000000	0.0870444 	420.000000	0.0882475 	420.000000	0.0869037 	420.000000	0.0863849 	420.000000	0.088226  	420.000000	2.15537e-05	
430.000000	0.0860965 	430.000000	0.087307  	430.000000	0.085981  	430.000000	0.0854638 	430.000000	0.0872859 	430.000000	2.10908e-05	
440.000000	0.0851911 	440.000000	0.0864101 	440.000000	0.0851024 	440.000000	0.084586  	440.000000	0.0863894 	440.000000	2.0648e-05	
450.000000	0.0843258 	450.000000	0.0855539 	450.000000	0.0842633 	450.000000	0.0837487 	450.000000	0.0855336 	450.000000	2.02242e-05	
460.000000	0.0834979 	460.000000	0.0847358 	460.000000	0.0834589 	460.000000	0.0829493 	460.000000	0.084716  	460.000000	1.9818e-05	
470.000000	0.0827052 	470.000000	0.0839535 	470.000000	0.0826886 	470.000000	0.0821855 	470.000000	0.0839341 	470.000000	1.94284e-05	
480.000000	0.0819457 	480.000000	0.0832049 	480.000000	0.0819535 	480.000000	0.081455  	480.000000	0.0831858 	480.000000	1.90544e-05	
490.000000	0.0812174 	490.000000	0.0824878 	490.000000	0.0812527 	490.000000	0.0807559 	490.000000	0.0824691 	490.000000	1.8695e-05	
500.000000	0.0805186 	500.000000	0.0818005 	500.000000	0.0805825 	500.000000	0.0800863 	500.000000	0.0817822 	500.000000	1.83494e-05	
520.000000	0.0792029 	520.000000	0.0805087 	520.000000	0.0793227 	520.000000	0.0788289 	520.000000	0.080491  	520.000000	1.76965e-05	
540.000000	0.0779868 	540.000000	0.0793171 	540.000000	0.0781618 	540.000000	0.0776707 	540.000000	0.0793    	540.000000	1.709e-05 	
560.000000	0.0768603 	560.000000	0.0782154 	560.000000	0.0770899 	560.000000	0.0766012 	560.000000	0.0781989 	560.000000	1.65252e-05	
580.000000	0.0758146 	580.000000	0.0771945 	580.000000	0.0760966 	580.000000	0.0756114 	580.000000	0.0771785 	580.000000	1.59977e-05	
600.000000	0.0748421 	600.000000	0.0762465 	600.000000	0.0751727 	600.000000	0.0746933 	600.000000	0.076231  	600.000000	1.55041e-05	
620.000000	0.0739361 	620.000000	0.0753646 	620.000000	0.0743139 	620.000000	0.0738401 	620.000000	0.0753496 	620.000000	1.5041e-05	
640.000000	0.0730907 	640.000000	0.0745428 	640.000000	0.0735171 	640.000000	0.0730457 	640.000000	0.0745282 	640.000000	1.46057e-05	
660.000000	0.0723006 	660.000000	0.0737757 	660.000000	0.0727749 	660.000000	0.0723048 	660.000000	0.0737615 	660.000000	1.41958e-05	
680.000000	0.0715614 	680.000000	0.0730586 	680.000000	0.072081  	680.000000	0.0716127 	680.000000	0.0730448 	680.000000	1.3809e-05	
700.000000	0.0708689 	700.000000	0.0723874 	700.000000	0.0714321 	700.000000	0.0709651 	700.000000	0.072374  	700.000000	1.34435e-05	
720.000000	0.0702193 	720.000000	0.0717583 	720.000000	0.0708246 	720.000000	0.0703585 	720.000000	0.0717452 	720.000000	1.30975e-05	
