Energy (MeV/u)1	0 - [He-base] F.Hubert et al, AD&ND Tables 46(1990)1	Energy (MeV/u)2	1 - [H -base] J.F.Ziegler et al,Pergamon Press,NY(low energy)	Energy (MeV/u)3	2 - ATIMA 1.2 LS-theory (recommended for high energy)	Energy (MeV/u)4	3 - ATIMA 1.2 without LS-correction	Energy (MeV/u)5	4 - ATIMA 1.4 H.Weick, improved mean charge formula for HI	Energy (MeV/u)6	5 - electrical component of [1] - J.F.Ziegler et al	Energy (MeV/u)7	6 - nuclear component of [1] - J.F.Ziegler et al	
0.001000	0.206423  	0.001000	0.0382708 	0.001000	0.0395905 	0.001000	0.0395905 	0.001000	0.039567  	0.001000	0.0346328 	0.001000	0.003638  	
0.002000	0.24593   	0.002000	0.0507398 	0.002000	0.0525425 	0.002000	0.0525425 	0.002000	0.0525233 	0.002000	0.0473098 	0.002000	0.00343003	
0.005000	0.32298   	0.005000	0.0741988 	0.005000	0.0769215 	0.005000	0.0769215 	0.005000	0.0769095 	0.005000	0.0714535 	0.005000	0.00274529	
0.008000	0.375814  	0.008000	0.0905796 	0.008000	0.0939435 	0.008000	0.0939435 	0.008000	0.0939348 	0.008000	0.0882831 	0.008000	0.00229645	
0.010000	0.40462   	0.010000	0.0996887 	0.010000	0.103408  	0.010000	0.103408  	0.010000	0.103401  	0.010000	0.0976084 	0.010000	0.00208029	
0.015000	0.488016  	0.015000	0.117497  	0.015000	0.123312  	0.015000	0.123312  	0.015000	0.123307  	0.015000	0.115795  	0.015000	0.00170199	
0.020000	0.556346  	0.020000	0.132118  	0.020000	0.139872  	0.020000	0.139872  	0.020000	0.139868  	0.020000	0.130664  	0.020000	0.00145417	
0.025000	0.612858  	0.025000	0.144443  	0.025000	0.154316  	0.025000	0.154316  	0.025000	0.154313  	0.025000	0.143166  	0.025000	0.00127726	
0.030000	0.659287  	0.030000	0.15496   	0.030000	0.163144  	0.030000	0.163144  	0.030000	0.163141  	0.030000	0.153816  	0.030000	0.0011436 	
0.035000	0.696776  	0.035000	0.163981  	0.035000	0.17065   	0.035000	0.17065   	0.035000	0.170648  	0.035000	0.162943  	0.035000	0.00103849	
0.040000	0.726226  	0.040000	0.171731  	0.040000	0.177057  	0.040000	0.177057  	0.040000	0.177055  	0.040000	0.170777  	0.040000	0.000953322	
0.045000	0.748445  	0.045000	0.178379  	0.045000	0.18253   	0.045000	0.18253   	0.045000	0.182528  	0.045000	0.177496  	0.045000	0.000882689	
0.050000	0.764212  	0.050000	0.184061  	0.050000	0.187196  	0.050000	0.187196  	0.050000	0.187195  	0.050000	0.183238  	0.050000	0.000823018	
0.055000	0.774294  	0.055000	0.188892  	0.055000	0.191159  	0.055000	0.191159  	0.055000	0.191158  	0.055000	0.188121  	0.055000	0.00077184	
0.060000	0.779447  	0.060000	0.192969  	0.060000	0.194504  	0.060000	0.194504  	0.060000	0.194502  	0.060000	0.192242  	0.060000	0.000727391	
0.070000	0.777842  	0.070000	0.199187  	0.070000	0.199614  	0.070000	0.199614  	0.070000	0.199612  	0.070000	0.198534  	0.070000	0.000653806	
0.080000	0.764696  	0.080000	0.203278  	0.080000	0.202991  	0.080000	0.202991  	0.080000	0.20299   	0.080000	0.202683  	0.080000	0.000595189	
0.090000	0.744373  	0.090000	0.205684  	0.090000	0.204987  	0.090000	0.204987  	0.090000	0.204987  	0.090000	0.205142  	0.090000	0.000542229	
0.100000	0.720179  	0.100000	0.206774  	0.100000	0.205894  	0.100000	0.205894  	0.100000	0.205894  	0.100000	0.206271  	0.100000	0.000502646	
0.120000	0.668683  	0.120000	0.206091  	0.120000	0.205281  	0.120000	0.205281  	0.120000	0.20528   	0.120000	0.205651  	0.120000	0.000439983	
0.140000	0.620388  	0.140000	0.202931  	0.140000	0.202478  	0.140000	0.202478  	0.140000	0.202478  	0.140000	0.202538  	0.140000	0.000392428	
0.160000	0.578462  	0.160000	0.198387  	0.160000	0.198367  	0.160000	0.198367  	0.160000	0.198367  	0.160000	0.198032  	0.160000	0.000354971	
0.180000	0.543039  	0.180000	0.19315   	0.180000	0.193529  	0.180000	0.193529  	0.180000	0.193529  	0.180000	0.192826  	0.180000	0.000324622	
0.200000	0.513233  	0.200000	0.187647  	0.200000	0.188344  	0.200000	0.188344  	0.200000	0.188344  	0.200000	0.187348  	0.200000	0.00029948	
0.250000	0.45663   	0.250000	0.174149  	0.250000	0.175259  	0.250000	0.175259  	0.250000	0.175258  	0.250000	0.173897  	0.250000	0.000251987	
0.300000	0.416269  	0.300000	0.162068  	0.300000	0.1632    	0.300000	0.1632    	0.300000	0.1632    	0.300000	0.16185   	0.300000	0.000218433	
0.350000	0.385279  	0.350000	0.151643  	0.350000	0.152613  	0.350000	0.152613  	0.350000	0.152613  	0.350000	0.151449  	0.350000	0.000193349	
0.400000	0.360148  	0.400000	0.14269   	0.400000	0.143447  	0.400000	0.143447  	0.400000	0.143447  	0.400000	0.142517  	0.400000	0.000173819	
0.450000	0.338997  	0.450000	0.13496   	0.450000	0.135512  	0.450000	0.135512  	0.450000	0.135512  	0.450000	0.134802  	0.450000	0.000158142	
0.500000	0.320742  	0.500000	0.128223  	0.500000	0.128603  	0.500000	0.128603  	0.500000	0.128603  	0.500000	0.128078  	0.500000	0.000145256	
0.600000	0.290438  	0.600000	0.117032  	0.600000	0.117177  	0.600000	0.117177  	0.600000	0.117177  	0.600000	0.116907  	0.600000	0.000125269	
0.700000	0.266013  	0.700000	0.108069  	0.700000	0.108092  	0.700000	0.108092  	0.700000	0.108092  	0.700000	0.107959  	0.700000	0.000110433	
0.800000	0.245754  	0.800000	0.100687  	0.800000	0.10066   	0.800000	0.10066   	0.800000	0.10066   	0.800000	0.100588  	0.800000	9.89486e-05	
0.900000	0.228612  	0.900000	0.0944709 	0.900000	0.0944339 	0.900000	0.0944339 	0.900000	0.0944338 	0.900000	0.0943812 	0.900000	8.97728e-05	
1.000000	0.213886  	1.000000	0.089146  	1.000000	0.0891202 	1.000000	0.0891202 	1.000000	0.0891201 	1.000000	0.0890637 	1.000000	8.22595e-05	
1.250000	0.184698  	1.250000	0.0785965 	1.250000	0.0786312 	1.250000	0.0786312 	1.250000	0.0786312 	1.250000	0.0785282 	1.250000	6.82881e-05	
1.500000	0.162953  	1.500000	0.0707012 	1.500000	0.0707983 	1.500000	0.0707983 	1.500000	0.0707983 	1.500000	0.0706426 	1.500000	5.85957e-05	
1.750000	0.146074  	1.750000	0.0645228 	1.750000	0.0646689 	1.750000	0.0646689 	1.750000	0.0646689 	1.750000	0.0644714 	1.750000	5.14488e-05	
2.000000	0.13256   	2.000000	0.0595293 	2.000000	0.0597108 	2.000000	0.0597108 	2.000000	0.0597108 	2.000000	0.0594834 	2.000000	4.59455e-05	
2.250000	0.121479  	2.250000	0.0553931 	2.250000	0.0555991 	2.250000	0.0555991 	2.250000	0.0555991 	2.250000	0.0553516 	2.250000	4.15678e-05	
2.500000	0.11173   	2.500000	0.0519001 	2.500000	0.0521222 	2.500000	0.0521222 	2.500000	0.0521222 	2.500000	0.0518621 	2.500000	3.79966e-05	
3.000000	0.0975606 	3.000000	0.0462992 	3.000000	0.0465375 	3.000000	0.0465375 	3.000000	0.0465375 	3.000000	0.0462667 	3.000000	3.25083e-05	
3.500000	0.0868065 	3.500000	0.0419815 	3.500000	0.042223  	3.500000	0.042223  	3.500000	0.042223  	3.500000	0.041953  	3.500000	2.84763e-05	
4.000000	0.0783425 	4.000000	0.0385333 	4.000000	0.0387712 	4.000000	0.0387712 	4.000000	0.0387712 	4.000000	0.038508  	4.000000	2.53806e-05	
4.500000	0.0714933 	4.500000	0.0357048 	4.500000	0.0359356 	4.500000	0.0359356 	4.500000	0.0359356 	4.500000	0.0356819 	4.500000	2.29242e-05	
5.000000	0.0658281 	5.000000	0.0333352 	5.000000	0.0335573 	5.000000	0.0335573 	5.000000	0.0335573 	5.000000	0.0333143 	5.000000	2.09246e-05	
5.500000	0.0610583 	5.500000	0.0313161 	5.500000	0.0315287 	5.500000	0.0315287 	5.500000	0.0315287 	5.500000	0.0312968 	5.500000	1.92632e-05	
6.000000	0.056983  	6.000000	0.0295714 	6.000000	0.0297744 	6.000000	0.0297744 	6.000000	0.0297744 	6.000000	0.0295535 	6.000000	1.78594e-05	
6.500000	0.0534578 	6.500000	0.028046  	6.500000	0.0282396 	6.500000	0.0282396 	6.500000	0.0282396 	6.500000	0.0280293 	6.500000	1.66567e-05	
7.000000	0.0503763 	7.000000	0.0266991 	7.000000	0.0268835 	7.000000	0.0268835 	7.000000	0.0268835 	7.000000	0.0266834 	7.000000	1.5614e-05	
7.500000	0.0476579 	7.500000	0.0254994 	7.500000	0.0256751 	7.500000	0.0256751 	7.500000	0.0256751 	7.500000	0.0254847 	7.500000	1.47009e-05	
8.000000	0.0452408 	8.000000	0.0244229 	8.000000	0.0245904 	8.000000	0.0245904 	8.000000	0.0245904 	8.000000	0.024409  	8.000000	1.38942e-05	
8.500000	0.0430766 	8.500000	0.0234506 	8.500000	0.0236102 	8.500000	0.0236102 	8.500000	0.0236102 	8.500000	0.0234374 	8.500000	1.3176e-05	
9.000000	0.0411268 	9.000000	0.0225672 	9.000000	0.0227195 	9.000000	0.0227195 	9.000000	0.0227195 	9.000000	0.0225547 	9.000000	1.25323e-05	
9.500000	0.0393604 	9.500000	0.0217605 	9.500000	0.0219058 	9.500000	0.0219058 	9.500000	0.0219058 	9.500000	0.0217485 	9.500000	1.19518e-05	
10.000000	0.0377522 	10.000000	0.0212162 	10.000000	0.0211592 	10.000000	0.0211592 	10.000000	0.0211592 	10.000000	0.0212047 	10.000000	1.14254e-05	
11.000000	0.0349308 	11.000000	0.0200565 	11.000000	0.0198865 	11.000000	0.0198868 	11.000000	0.0198841 	11.000000	0.020046  	11.000000	1.05072e-05	
12.000000	0.0325348 	12.000000	0.0190102 	12.000000	0.0187841 	12.000000	0.0187846 	12.000000	0.0187822 	12.000000	0.0190004 	12.000000	9.73232e-06	
13.000000	0.030473  	13.000000	0.0180658 	13.000000	0.017818  	13.000000	0.0178183 	13.000000	0.0178168 	13.000000	0.0180567 	13.000000	9.06923e-06	
14.000000	0.0286789 	14.000000	0.0172117 	14.000000	0.0169628 	14.000000	0.0169627 	14.000000	0.0169619 	14.000000	0.0172032 	14.000000	8.49498e-06	
15.000000	0.0271027 	15.000000	0.0164369 	15.000000	0.0161985 	15.000000	0.0161985 	15.000000	0.0161983 	15.000000	0.0164289 	15.000000	7.99256e-06	
16.000000	0.0257062 	16.000000	0.0157318 	16.000000	0.0155112 	16.000000	0.0155109 	16.000000	0.0155111 	16.000000	0.0157242 	16.000000	7.54907e-06	
17.000000	0.0244599 	17.000000	0.0150879 	17.000000	0.0148893 	17.000000	0.0148882 	17.000000	0.0148887 	17.000000	0.0150807 	17.000000	7.15456e-06	
18.000000	0.0233404 	18.000000	0.0144979 	18.000000	0.0143224 	18.000000	0.0143209 	18.000000	0.0143217 	18.000000	0.0144911 	18.000000	6.80121e-06	
19.000000	0.0223288 	19.000000	0.0139556 	19.000000	0.0138029 	19.000000	0.0138014 	19.000000	0.0138025 	19.000000	0.0139491 	19.000000	6.48279e-06	
20.000000	0.0214101 	20.000000	0.0134555 	20.000000	0.0133244 	20.000000	0.0133229 	20.000000	0.0133243 	20.000000	0.0134493 	20.000000	6.19429e-06	
21.000000	0.0205717 	21.000000	0.012993  	21.000000	0.012883  	21.000000	0.0128814 	21.000000	0.012883  	21.000000	0.012987  	21.000000	5.93161e-06	
22.000000	0.0198034 	22.000000	0.012564  	22.000000	0.0124735 	22.000000	0.0124719 	22.000000	0.0124739 	22.000000	0.0125583 	22.000000	5.69137e-06	
23.000000	0.0190966 	23.000000	0.0121652 	23.000000	0.0120926 	23.000000	0.0120909 	23.000000	0.0120932 	23.000000	0.0121597 	23.000000	5.47078e-06	
24.000000	0.018444  	24.000000	0.0117933 	24.000000	0.0117375 	24.000000	0.0117353 	24.000000	0.0117378 	24.000000	0.0117881 	24.000000	5.26747e-06	
25.000000	0.0178395 	25.000000	0.0114459 	25.000000	0.0114056 	25.000000	0.0114023 	25.000000	0.0114051 	25.000000	0.0114408 	25.000000	5.07946e-06	
27.000000	0.0167548 	27.000000	0.0108152 	27.000000	0.0107998 	27.000000	0.0107956 	27.000000	0.0107989 	27.000000	0.0108104 	27.000000	4.74281e-06	
29.000000	0.0158086 	29.000000	0.0102576 	29.000000	0.0102602 	29.000000	0.0102561 	29.000000	0.0102599 	29.000000	0.0102531 	29.000000	4.44996e-06	
31.000000	0.0149756 	31.000000	0.00976112	31.000000	0.0097724 	31.000000	0.00976828	31.000000	0.00977233	31.000000	0.00975692	31.000000	4.19276e-06	
33.000000	0.0142362 	33.000000	0.00931616	33.000000	0.00933097	33.000000	0.0093271 	33.000000	0.0093312 	33.000000	0.0093122 	33.000000	3.96498e-06	
35.000000	0.0135753 	35.000000	0.00891505	35.000000	0.00893344	35.000000	0.00893   	35.000000	0.00893412	35.000000	0.00891129	35.000000	3.76177e-06	
38.000000	0.0127051 	38.000000	0.00838232	38.000000	0.00840778	38.000000	0.00840314	38.000000	0.00840727	38.000000	0.00837882	38.000000	3.49486e-06	
41.000000	0.0119535 	41.000000	0.00791799	41.000000	0.00794896	41.000000	0.00794417	41.000000	0.00794829	41.000000	0.00791472	41.000000	3.26489e-06	
44.000000	0.0112973 	44.000000	0.00750958	44.000000	0.0075448 	44.000000	0.00754043	44.000000	0.00754451	44.000000	0.00750651	44.000000	3.06458e-06	
47.000000	0.0107192 	47.000000	0.00714747	47.000000	0.00718641	47.000000	0.00718226	47.000000	0.00718631	47.000000	0.00714458	47.000000	2.88847e-06	
50.000000	0.0102057 	50.000000	0.00682414	50.000000	0.00686609	50.000000	0.00686219	50.000000	0.0068662 	50.000000	0.00682141	50.000000	2.73236e-06	
55.000000	0.00946597	55.000000	0.00635574	55.000000	0.00640147	55.000000	0.00639788	55.000000	0.00640181	55.000000	0.00635323	55.000000	2.50804e-06	
60.000000	0.00884144	60.000000	0.00595796	60.000000	0.00600636	60.000000	0.00600281	60.000000	0.00600665	60.000000	0.00595564	60.000000	2.31919e-06	
65.000000	0.00830663	65.000000	0.00561581	65.000000	0.00566647	65.000000	0.00566228	65.000000	0.00566604	65.000000	0.00561365	65.000000	2.1579e-06	
70.000000	0.00784316	70.000000	0.00531827	70.000000	0.00536934	70.000000	0.00536552	70.000000	0.0053692 	70.000000	0.00531625	70.000000	2.01847e-06	
75.000000	0.00743736	75.000000	0.00505707	75.000000	0.00510808	75.000000	0.00510447	75.000000	0.00510807	75.000000	0.00505517	75.000000	1.89669e-06	
80.000000	0.00707889	80.000000	0.00482587	80.000000	0.00487634	80.000000	0.00487294	80.000000	0.00487647	80.000000	0.00482408	80.000000	1.78936e-06	
85.000000	0.00675975	85.000000	0.00461973	85.000000	0.00466934	85.000000	0.00466612	85.000000	0.00466958	85.000000	0.00461803	85.000000	1.69401e-06	
90.000000	0.00647368	90.000000	0.00443475	90.000000	0.00448328	90.000000	0.00448019	90.000000	0.00448359	90.000000	0.00443314	90.000000	1.60873e-06	
95.000000	0.00621567	95.000000	0.0042678 	95.000000	0.00431577	95.000000	0.0043121 	95.000000	0.00431544	95.000000	0.00426627	95.000000	1.53196e-06	
100.000000	0.0059817 	100.000000	0.00411635	100.000000	0.00416288	100.000000	0.00415937	100.000000	0.00416265	100.000000	0.00411489	100.000000	1.46249e-06	
105.000000	0.00576847	105.000000	0.00397831	105.000000	0.00402331	105.000000	0.00401995	105.000000	0.00402318	105.000000	0.00397691	105.000000	1.39931e-06	
110.000000	0.0055733 	110.000000	0.00385196	110.000000	0.00389541	110.000000	0.00389217	110.000000	0.00389535	110.000000	0.00385062	110.000000	1.34158e-06	
115.000000	0.00539391	115.000000	0.00373587	115.000000	0.00377772	115.000000	0.00377461	115.000000	0.00377773	115.000000	0.00373458	115.000000	1.28862e-06	
120.000000	0.00522843	120.000000	0.00362882	120.000000	0.00366907	120.000000	0.00366607	120.000000	0.00366915	120.000000	0.00362758	120.000000	1.23986e-06	
125.000000	0.00507526	125.000000	0.0035298 	125.000000	0.00356846	125.000000	0.00356555	125.000000	0.00356859	125.000000	0.0035286 	125.000000	1.1948e-06	
130.000000	0.00493304	130.000000	0.00343791	130.000000	0.00347501	130.000000	0.00347219	130.000000	0.00347518	130.000000	0.00343676	130.000000	1.15304e-06	
135.000000	0.00480061	135.000000	0.00335243	135.000000	0.00338791	135.000000	0.00338524	135.000000	0.00338819	135.000000	0.00335131	135.000000	1.11422e-06	
140.000000	0.00467696	140.000000	0.00327268	140.000000	0.00330692	140.000000	0.00330406	140.000000	0.00330698	140.000000	0.00327161	140.000000	1.07803e-06	
145.000000	0.00456123	145.000000	0.00319812	145.000000	0.00323121	145.000000	0.00322809	145.000000	0.00323097	145.000000	0.00319708	145.000000	1.04422e-06	
150.000000	0.00445266	150.000000	0.00312825	150.000000	0.00315987	150.000000	0.00315684	150.000000	0.00315969	150.000000	0.00312724	150.000000	1.01256e-06	
155.000000	0.00429979	155.000000	0.00306264	155.000000	0.00309281	155.000000	0.00308989	155.000000	0.00309271	155.000000	0.00306165	155.000000	9.82832e-07	
160.000000	0.00421019	160.000000	0.0030009 	160.000000	0.00302972	160.000000	0.00302686	160.000000	0.00302964	160.000000	0.00299995	160.000000	9.54876e-07	
165.000000	0.00412569	165.000000	0.00294271	165.000000	0.0029702 	165.000000	0.00296741	165.000000	0.00297016	165.000000	0.00294178	165.000000	9.28531e-07	
170.000000	0.00404587	170.000000	0.00288777	170.000000	0.00291397	170.000000	0.00291124	170.000000	0.00291397	170.000000	0.00288686	170.000000	9.03662e-07	
175.000000	0.00397035	175.000000	0.0028358 	175.000000	0.00286077	175.000000	0.0028581 	175.000000	0.0028608 	175.000000	0.00283492	175.000000	8.80144e-07	
180.000000	0.00389877	180.000000	0.00278658	180.000000	0.00281035	180.000000	0.00280774	180.000000	0.00281041	180.000000	0.00278573	180.000000	8.57871e-07	
185.000000	0.00383084	185.000000	0.0027399 	185.000000	0.00276251	185.000000	0.00275996	185.000000	0.0027626 	185.000000	0.00273906	185.000000	8.36743e-07	
190.000000	0.00376628	190.000000	0.00269555	190.000000	0.00271707	190.000000	0.00271455	190.000000	0.00271717	190.000000	0.00269474	190.000000	8.16674e-07	
195.000000	0.00370485	195.000000	0.00265338	195.000000	0.00267379	195.000000	0.00267135	195.000000	0.00267395	195.000000	0.00265258	195.000000	7.97584e-07	
200.000000	0.00364631	200.000000	0.00261322	200.000000	0.00263258	200.000000	0.00263021	200.000000	0.00263278	200.000000	0.00261244	200.000000	7.79404e-07	
210.000000	0.00353714	210.000000	0.00253839	210.000000	0.00255617	210.000000	0.00255352	210.000000	0.00255605	210.000000	0.00253764	210.000000	7.45517e-07	
220.000000	0.00343736	220.000000	0.00247009	220.000000	0.00248613	220.000000	0.0024835 	220.000000	0.00248599	220.000000	0.00246937	220.000000	7.14569e-07	
230.000000	0.00334581	230.000000	0.0024075 	230.000000	0.00242185	230.000000	0.00241932	230.000000	0.00242177	230.000000	0.00240681	230.000000	6.86186e-07	
240.000000	0.00326149	240.000000	0.00234994	240.000000	0.00236275	240.000000	0.00236029	240.000000	0.00236271	240.000000	0.00234928	240.000000	6.60059e-07	
250.000000	0.00318358	250.000000	0.00229683	250.000000	0.00230821	250.000000	0.00230582	250.000000	0.00230821	250.000000	0.00229619	250.000000	6.35925e-07	
260.000000	0.00311138	260.000000	0.00224768	260.000000	0.00225774	260.000000	0.00225541	260.000000	0.00225777	260.000000	0.00224706	260.000000	6.13563e-07	
270.000000	0.00304427	270.000000	0.00220206	270.000000	0.00221091	270.000000	0.00220864	270.000000	0.00221097	270.000000	0.00220146	270.000000	5.92781e-07	
280.000000	0.00298174	280.000000	0.00215961	280.000000	0.00216735	280.000000	0.00216513	280.000000	0.00216743	280.000000	0.00215904	280.000000	5.73415e-07	
290.000000	0.00292333	290.000000	0.00212002	290.000000	0.00212669	290.000000	0.00212456	290.000000	0.00212684	290.000000	0.00211946	290.000000	5.55323e-07	
300.000000	0.00286866	300.000000	0.00208301	300.000000	0.00208889	300.000000	0.00208665	300.000000	0.0020889 	300.000000	0.00208247	300.000000	5.38382e-07	
310.000000	0.00281737	310.000000	0.00204833	310.000000	0.00205354	310.000000	0.00205115	310.000000	0.00205338	310.000000	0.00204781	310.000000	5.22485e-07	
320.000000	0.00276916	320.000000	0.00201579	320.000000	0.00202019	320.000000	0.00201786	320.000000	0.00202006	320.000000	0.00201529	320.000000	5.07536e-07	
330.000000	0.00272377	330.000000	0.0019852 	330.000000	0.00198883	330.000000	0.00198656	330.000000	0.00198875	330.000000	0.0019847 	330.000000	4.93452e-07	
340.000000	0.00268096	340.000000	0.00195638	340.000000	0.00195934	340.000000	0.00195711	340.000000	0.00195928	340.000000	0.0019559 	340.000000	4.80159e-07	
350.000000	0.00264051	350.000000	0.00192919	350.000000	0.00193153	350.000000	0.00192934	350.000000	0.00193149	350.000000	0.00192872	350.000000	4.67591e-07	
360.000000	0.00260225	360.000000	0.0019035 	360.000000	0.00190527	360.000000	0.00190312	360.000000	0.00190525	360.000000	0.00190305	360.000000	4.55689e-07	
370.000000	0.002566  	370.000000	0.0018792 	370.000000	0.00188045	370.000000	0.00187833	370.000000	0.00188044	370.000000	0.00187875	370.000000	4.44402e-07	
380.000000	0.00253161	380.000000	0.00185617	380.000000	0.00185695	380.000000	0.00185486	380.000000	0.00185696	380.000000	0.00185574	380.000000	4.33683e-07	
390.000000	0.00249895	390.000000	0.00183433	390.000000	0.00183467	390.000000	0.00183262	390.000000	0.0018347 	390.000000	0.0018339 	390.000000	4.23488e-07	
400.000000	0.00246788	400.000000	0.00181358	400.000000	0.00181353	400.000000	0.00181151	400.000000	0.00181357	400.000000	0.00181317	400.000000	4.1378e-07	
