Energy (MeV/u)1	0 - [He-base] F.Hubert et al, AD&ND Tables 46(1990)1	Energy (MeV/u)2	1 - [H -base] J.F.Ziegler et al,Pergamon Press,NY(low energy)	Energy (MeV/u)3	2 - ATIMA 1.2 LS-theory (recommended for high energy)	Energy (MeV/u)4	3 - ATIMA 1.2 without LS-correction	Energy (MeV/u)5	4 - ATIMA 1.4 H.Weick, improved mean charge formula for HI	Energy (MeV/u)6	5 - electrical component of [1] - J.F.Ziegler et al	Energy (MeV/u)7	6 - nuclear component of [1] - J.F.Ziegler et al	
0.001000	1.7879    	0.001000	5.94299   	0.001000	5.13751   	0.001000	5.13751   	0.001000	5.13759   	0.001000	3.06156   	0.001000	2.88143   	
0.002000	1.95347   	0.002000	6.13304   	0.002000	5.35322   	0.002000	5.35322   	0.002000	5.35327   	0.002000	3.97036   	0.002000	2.16268   	
0.005000	2.36616   	0.005000	6.913     	0.005000	6.35932   	0.005000	6.35932   	0.005000	6.35936   	0.005000	5.59831   	0.005000	1.31469   	
0.008000	2.69336   	0.008000	7.65475   	0.008000	7.35844   	0.008000	7.35844   	0.008000	7.35846   	0.008000	6.67732   	0.008000	0.977437  	
0.010000	2.88085   	0.010000	8.10259   	0.010000	7.97665   	0.010000	7.97665   	0.010000	7.97667   	0.010000	7.26011   	0.010000	0.842483  	
0.015000	3.35631   	0.015000	9.55554   	0.015000	9.13513   	0.015000	9.13513   	0.015000	9.13515   	0.015000	8.9255    	0.015000	0.630037  	
0.020000	3.73619   	0.020000	11.2736   	0.020000	10.117    	0.020000	10.117    	0.020000	10.117    	0.020000	10.7612   	0.020000	0.512445  	
0.025000	4.15539   	0.025000	12.9268   	0.025000	11.0792   	0.025000	11.0792   	0.025000	11.0792   	0.025000	12.492    	0.025000	0.434726  	
0.030000	4.51069   	0.030000	14.5144   	0.030000	12.3425   	0.030000	12.3425   	0.030000	12.3425   	0.030000	14.1353   	0.030000	0.379137  	
0.035000	4.80279   	0.035000	16.0318   	0.035000	13.5447   	0.035000	13.5447   	0.035000	13.5447   	0.035000	15.6946   	0.035000	0.337197  	
0.040000	5.033     	0.040000	17.4732   	0.040000	14.6843   	0.040000	14.6843   	0.040000	14.6843   	0.040000	17.1689   	0.040000	0.304312  	
0.045000	5.20377   	0.045000	18.8329   	0.045000	15.7603   	0.045000	15.7603   	0.045000	15.7603   	0.045000	18.5552   	0.045000	0.277763  	
0.050000	5.31857   	0.050000	20.1062   	0.050000	16.7724   	0.050000	16.7724   	0.050000	16.7724   	0.050000	19.8503   	0.050000	0.255834  	
0.055000	5.55018   	0.055000	21.2891   	0.055000	17.7208   	0.055000	17.7208   	0.055000	17.7208   	0.055000	21.0517   	0.055000	0.237386  	
0.060000	5.74746   	0.060000	22.3789   	0.060000	18.6062   	0.060000	18.6062   	0.060000	18.6062   	0.060000	22.1573   	0.060000	0.221628  	
0.070000	6.04882   	0.070000	24.2753   	0.070000	20.1931   	0.070000	20.1931   	0.070000	20.1931   	0.070000	24.0792   	0.070000	0.196078  	
0.080000	6.37217   	0.080000	25.7994   	0.080000	21.5466   	0.080000	21.5466   	0.080000	21.5466   	0.080000	25.6232   	0.080000	0.1762    	
0.090000	6.62619   	0.090000	26.9925   	0.090000	22.6846   	0.090000	22.6846   	0.090000	22.6846   	0.090000	26.8322   	0.090000	0.160254  	
0.100000	6.82993   	0.100000	27.9033   	0.100000	23.6272   	0.100000	23.6272   	0.100000	23.6272   	0.100000	27.7561   	0.100000	0.147153  	
0.120000	6.95369   	0.120000	28.924    	0.120000	25.0102   	0.120000	25.0102   	0.120000	25.0102   	0.120000	28.7972   	0.120000	0.126844  	
0.140000	7.00287   	0.140000	29.1696   	0.140000	25.857    	0.140000	25.857    	0.140000	25.857    	0.140000	29.0578   	0.140000	0.111779  	
0.160000	7.02029   	0.160000	28.9062   	0.160000	26.3073   	0.160000	26.3073   	0.160000	26.3073   	0.160000	28.8061   	0.160000	0.100122  	
0.180000	7.01882   	0.180000	28.2967   	0.180000	26.4729   	0.180000	26.4729   	0.180000	26.4729   	0.180000	28.2059   	0.180000	0.0908137 	
0.200000	7.03417   	0.200000	27.6117   	0.200000	26.4393   	0.200000	26.4393   	0.200000	26.4393   	0.200000	27.5285   	0.200000	0.0831942 	
0.250000	6.9058    	0.250000	25.96     	0.250000	25.8573   	0.250000	25.8573   	0.250000	25.8574   	0.250000	25.891    	0.250000	0.0690324 	
0.300000	6.93417   	0.300000	24.98     	0.300000	24.9731   	0.300000	24.9731   	0.300000	24.9731   	0.300000	24.9207   	0.300000	0.0592135 	
0.350000	6.98614   	0.350000	24.3019   	0.350000	24.0345   	0.350000	24.0345   	0.350000	24.0346   	0.350000	24.2499   	0.350000	0.0519767 	
0.400000	6.97394   	0.400000	23.593    	0.400000	23.1744   	0.400000	23.1744   	0.400000	23.1745   	0.400000	23.5466   	0.400000	0.046406  	
0.450000	6.93545   	0.450000	22.9505   	0.450000	22.5263   	0.450000	22.5263   	0.450000	22.5264   	0.450000	22.9085   	0.450000	0.0419762 	
0.500000	6.91602   	0.500000	22.4855   	0.500000	21.8898   	0.500000	21.8898   	0.500000	21.8898   	0.500000	22.4472   	0.500000	0.0383633 	
0.600000	6.6087    	0.600000	21.6652   	0.600000	20.7023   	0.600000	20.7023   	0.600000	20.7023   	0.600000	21.6324   	0.600000	0.0328127 	
0.700000	6.26348   	0.700000	20.8954   	0.700000	19.5939   	0.700000	19.5939   	0.700000	19.5939   	0.700000	20.8666   	0.700000	0.0287363 	
0.800000	6.13024   	0.800000	20.12     	0.800000	18.6111   	0.800000	18.6111   	0.800000	18.6111   	0.800000	20.0944   	0.800000	0.0256075 	
0.900000	5.98304   	0.900000	19.3754   	0.900000	17.7422   	0.900000	17.7422   	0.900000	17.7422   	0.900000	19.3523   	0.900000	0.0231254 	
1.000000	5.82829   	1.000000	18.6606   	1.000000	16.9647   	1.000000	16.9647   	1.000000	16.9647   	1.000000	18.6395   	1.000000	0.0211052 	
1.250000	5.38646   	1.250000	16.891    	1.250000	15.2991   	1.250000	15.2991   	1.250000	15.2991   	1.250000	16.8736   	1.250000	0.0173796 	
1.500000	4.93154   	1.500000	15.2108   	1.500000	13.9114   	1.500000	13.9114   	1.500000	13.9114   	1.500000	15.196    	1.500000	0.0148203 	
1.750000	4.54334   	1.750000	13.8253   	1.750000	12.7891   	1.750000	12.7891   	1.750000	12.7891   	1.750000	13.8124   	1.750000	0.0129476 	
2.000000	4.18214   	2.000000	12.5792   	2.000000	11.8508   	2.000000	11.8508   	2.000000	11.8508   	2.000000	12.5677   	2.000000	0.0115144 	
2.250000	3.8817    	2.250000	11.5402   	2.250000	11.0492   	2.250000	11.0492   	2.250000	11.0492   	2.250000	11.5298   	2.250000	0.0103803 	
2.500000	3.61506   	2.500000	10.6735   	2.500000	10.3541   	2.500000	10.3541   	2.500000	10.3541   	2.500000	10.664    	2.500000	0.00945921	
3.000000	3.22152   	3.000000	9.29727   	3.000000	9.20488   	3.000000	9.20488   	3.000000	9.20488   	3.000000	9.28922   	3.000000	0.00805133	
3.500000	2.90887   	3.500000	8.23965   	3.500000	8.29164   	3.500000	8.29164   	3.500000	8.29165   	3.500000	8.23263   	3.500000	0.00702337	
4.000000	2.65443   	4.000000	7.40034   	4.000000	7.54776   	4.000000	7.54776   	4.000000	7.54776   	4.000000	7.3941    	4.000000	0.00623809	
4.500000	2.44324   	4.500000	6.71665   	4.500000	6.92989   	4.500000	6.92989   	4.500000	6.9299    	4.500000	6.71103   	4.500000	0.0056176 	
5.000000	2.26502   	5.000000	6.14762   	5.000000	6.40843   	5.000000	6.40843   	5.000000	6.40843   	5.000000	6.14251   	5.000000	0.00511432	
5.500000	2.11254   	5.500000	5.66611   	5.500000	5.96237   	5.500000	5.96237   	5.500000	5.96237   	5.500000	5.66141   	5.500000	0.00469747	
6.000000	1.98053   	6.000000	5.25318   	6.000000	5.57639   	6.000000	5.57639   	6.000000	5.57639   	6.000000	5.24883   	6.000000	0.00434626	
6.500000	1.86508   	6.500000	4.89511   	6.500000	5.23906   	6.500000	5.23906   	6.500000	5.23906   	6.500000	4.89106   	6.500000	0.00404611	
7.000000	1.76322   	7.000000	4.58166   	7.000000	4.94167   	7.000000	4.94167   	7.000000	4.94167   	7.000000	4.57788   	7.000000	0.00378648	
7.500000	1.67266   	7.500000	4.30503   	7.500000	4.67748   	7.500000	4.67748   	7.500000	4.67748   	7.500000	4.30147   	7.500000	0.00355958	
8.000000	1.59158   	8.000000	4.05911   	8.000000	4.44117   	8.000000	4.44117   	8.000000	4.44117   	8.000000	4.05575   	8.000000	0.00335949	
8.500000	1.51855   	8.500000	3.83911   	8.500000	4.22853   	8.500000	4.22853   	8.500000	4.22853   	8.500000	3.83593   	8.500000	0.00318167	
9.000000	1.45241   	9.000000	3.64117   	9.000000	4.03612   	9.000000	4.03612   	9.000000	4.03613   	9.000000	3.63814   	9.000000	0.00302253	
9.500000	1.39222   	9.500000	3.46215   	9.500000	3.86118   	9.500000	3.86118   	9.500000	3.86118   	9.500000	3.45927   	9.500000	0.00287924	
10.000000	1.33719   	10.000000	3.33177   	10.000000	3.7014    	10.000000	3.7014    	10.000000	3.70141   	10.000000	3.32903   	10.000000	0.00274952	
11.000000	1.24016   	11.000000	3.11166   	11.000000	3.41473   	11.000000	3.41659   	11.000000	3.41556   	11.000000	3.10914   	11.000000	0.00252361	
12.000000	1.15727   	12.000000	2.91966   	12.000000	3.17071   	12.000000	3.17378   	12.000000	3.17188   	12.000000	2.91733   	12.000000	0.00233343	
13.000000	1.0856    	13.000000	2.75087   	13.000000	2.96048   	13.000000	2.96434   	13.000000	2.96175   	13.000000	2.7487    	13.000000	0.00217102	
14.000000	1.02299   	14.000000	2.6014    	14.000000	2.7775    	14.000000	2.78187   	14.000000	2.77875   	14.000000	2.59936   	14.000000	0.00203064	
15.000000	0.967789  	15.000000	2.46815   	15.000000	2.6168    	15.000000	2.62151   	15.000000	2.618     	15.000000	2.46624   	15.000000	0.00190803	
16.000000	0.918748  	16.000000	2.34866   	16.000000	2.47463   	16.000000	2.47949   	16.000000	2.47572   	16.000000	2.34686   	16.000000	0.00179997	
17.000000	0.874874  	17.000000	2.24091   	17.000000	2.34801   	17.000000	2.35287   	17.000000	2.34894   	17.000000	2.2392    	17.000000	0.00170398	
18.000000	0.835377  	18.000000	2.14326   	18.000000	2.23447   	18.000000	2.23932   	18.000000	2.23528   	18.000000	2.14164   	18.000000	0.00161813	
19.000000	0.799626  	19.000000	2.05435   	19.000000	2.13212   	19.000000	2.13693   	19.000000	2.13286   	19.000000	2.0528    	19.000000	0.00154086	
20.000000	0.767103  	20.000000	1.97306   	20.000000	2.03947   	20.000000	2.04416   	20.000000	2.04013   	20.000000	1.97159   	20.000000	0.00147094	
21.000000	0.737382  	21.000000	1.89845   	21.000000	1.95524   	21.000000	1.95976   	21.000000	1.95577   	21.000000	1.89704   	21.000000	0.00140734	
22.000000	0.710112  	22.000000	1.82972   	22.000000	1.87832   	22.000000	1.88265   	22.000000	1.87876   	22.000000	1.82837   	22.000000	0.00134924	
23.000000	0.684997  	23.000000	1.76621   	23.000000	1.80781   	23.000000	1.81197   	23.000000	1.80819   	23.000000	1.76491   	23.000000	0.00129594	
24.000000	0.661786  	24.000000	1.70734   	24.000000	1.74296   	24.000000	1.74696   	24.000000	1.74331   	24.000000	1.70609   	24.000000	0.00124686	
25.000000	0.640267  	25.000000	1.65261   	25.000000	1.68315   	25.000000	1.68699   	25.000000	1.68349   	25.000000	1.65141   	25.000000	0.00120152	
27.000000	0.601606  	27.000000	1.55394   	27.000000	1.5766    	27.000000	1.58009   	27.000000	1.57691   	27.000000	1.55282   	27.000000	0.00112043	
29.000000	0.567839  	29.000000	1.46742   	29.000000	1.48471   	29.000000	1.48775   	29.000000	1.48492   	29.000000	1.46637   	29.000000	0.00105   	
31.000000	0.538078  	31.000000	1.39091   	31.000000	1.40466   	31.000000	1.40716   	31.000000	1.4048    	31.000000	1.38993   	31.000000	0.000988224	
33.000000	0.511639  	33.000000	1.32277   	33.000000	1.33375   	33.000000	1.33574   	33.000000	1.3339    	33.000000	1.32184   	33.000000	0.000933589	
35.000000	0.487986  	35.000000	1.26167   	35.000000	1.27042   	35.000000	1.27196   	35.000000	1.27056   	35.000000	1.26079   	35.000000	0.000884906	
38.000000	0.456822  	38.000000	1.181     	38.000000	1.18715   	38.000000	1.18813   	38.000000	1.18724   	38.000000	1.18018   	38.000000	0.000821051	
41.000000	0.429883  	41.000000	1.11111   	41.000000	1.11533   	41.000000	1.11583   	41.000000	1.11534   	41.000000	1.11034   	41.000000	0.000766117	
44.000000	0.406349  	44.000000	1.04996   	44.000000	1.0526    	44.000000	1.05281   	44.000000	1.05264   	44.000000	1.04924   	44.000000	0.000718336	
47.000000	0.385603  	47.000000	0.995983  	47.000000	0.997466  	47.000000	0.997366  	47.000000	0.997457  	47.000000	0.995307  	47.000000	0.000676379	
50.000000	0.367168  	50.000000	0.947981  	50.000000	0.948543  	50.000000	0.948197  	50.000000	0.948496  	50.000000	0.947342  	50.000000	0.000639231	
55.000000	0.340603  	55.000000	0.878754  	55.000000	0.878103  	55.000000	0.877513  	55.000000	0.878075  	55.000000	0.878168  	55.000000	0.000585928	
60.000000	0.318163  	60.000000	0.820249  	60.000000	0.818755  	60.000000	0.81798   	60.000000	0.818732  	60.000000	0.819708  	60.000000	0.000541125	
65.000000	0.298941  	65.000000	0.77013   	65.000000	0.767986  	65.000000	0.767124  	65.000000	0.768015  	65.000000	0.769627  	65.000000	0.000502917	
70.000000	0.282278  	70.000000	0.726695  	70.000000	0.724181  	70.000000	0.723158  	70.000000	0.724153  	70.000000	0.726225  	70.000000	0.000469933	
75.000000	0.267685  	75.000000	0.688678  	75.000000	0.685814  	75.000000	0.684756  	75.000000	0.685829  	75.000000	0.688237  	75.000000	0.000441157	
80.000000	0.254792  	80.000000	0.655114  	80.000000	0.652069  	80.000000	0.650916  	80.000000	0.652048  	80.000000	0.654698  	80.000000	0.000415823	
85.000000	0.243313  	85.000000	0.625257  	85.000000	0.622029  	85.000000	0.620862  	85.000000	0.622038  	85.000000	0.624864  	85.000000	0.000393342	
90.000000	0.233021  	90.000000	0.598518  	90.000000	0.595229  	90.000000	0.593988  	90.000000	0.595195  	90.000000	0.598145  	90.000000	0.000373252	
95.000000	0.223739  	95.000000	0.574429  	95.000000	0.571053  	95.000000	0.56981   	95.000000	0.571042  	95.000000	0.574074  	95.000000	0.000355187	
100.000000	0.21532   	100.000000	0.552611  	100.000000	0.549183  	100.000000	0.547938  	100.000000	0.549189  	100.000000	0.552272  	100.000000	0.000338851	
105.000000	0.207647  	105.000000	0.532754  	105.000000	0.529297  	105.000000	0.528055  	105.000000	0.529319  	105.000000	0.53243   	105.000000	0.000324005	
110.000000	0.200624  	110.000000	0.514603  	110.000000	0.511188  	110.000000	0.5099    	110.000000	0.511174  	110.000000	0.514292  	110.000000	0.000310451	
115.000000	0.194168  	115.000000	0.497945  	115.000000	0.494558  	115.000000	0.493256  	115.000000	0.494535  	115.000000	0.497647  	115.000000	0.000298026	
120.000000	0.188213  	120.000000	0.482602  	120.000000	0.479233  	120.000000	0.47794   	120.000000	0.479223  	120.000000	0.482315  	120.000000	0.000286592	
125.000000	0.1827    	125.000000	0.468423  	125.000000	0.46509   	125.000000	0.4638    	125.000000	0.465084  	125.000000	0.468147  	125.000000	0.000276035	
130.000000	0.177582  	130.000000	0.455279  	130.000000	0.451989  	130.000000	0.450703  	130.000000	0.451988  	130.000000	0.455013  	130.000000	0.000266255	
135.000000	0.172815  	135.000000	0.443061  	135.000000	0.43982   	135.000000	0.438539  	135.000000	0.439821  	135.000000	0.442804  	135.000000	0.00025717	
140.000000	0.168365  	140.000000	0.431673  	140.000000	0.428486  	140.000000	0.42721   	140.000000	0.428491  	140.000000	0.431424  	140.000000	0.000248706	
145.000000	0.164199  	145.000000	0.421032  	145.000000	0.417905  	145.000000	0.416634  	145.000000	0.417911  	145.000000	0.420791  	145.000000	0.000240802	
150.000000	0.160291  	150.000000	0.411068  	150.000000	0.408004  	150.000000	0.406737  	150.000000	0.408011  	150.000000	0.410835  	150.000000	0.000233402	
155.000000	0.154789  	155.000000	0.401717  	155.000000	0.398718  	155.000000	0.397457  	155.000000	0.398726  	155.000000	0.401491  	155.000000	0.00022646	
160.000000	0.151563  	160.000000	0.392925  	160.000000	0.389993  	160.000000	0.388737  	160.000000	0.390001  	160.000000	0.392705  	160.000000	0.000219934	
165.000000	0.148522  	165.000000	0.384641  	165.000000	0.381779  	165.000000	0.380528  	165.000000	0.381787  	165.000000	0.384428  	165.000000	0.000213787	
170.000000	0.145649  	170.000000	0.376825  	170.000000	0.374033  	170.000000	0.372786  	170.000000	0.37404   	170.000000	0.376617  	170.000000	0.000207986	
175.000000	0.14293   	175.000000	0.369436  	175.000000	0.366715  	175.000000	0.365474  	175.000000	0.366722  	175.000000	0.369233  	175.000000	0.000202503	
180.000000	0.140354  	180.000000	0.362441  	180.000000	0.359792  	180.000000	0.358555  	180.000000	0.359798  	180.000000	0.362243  	180.000000	0.000197313	
185.000000	0.137908  	185.000000	0.355808  	185.000000	0.353232  	185.000000	0.352     	185.000000	0.353237  	185.000000	0.355616  	185.000000	0.000192391	
190.000000	0.135585  	190.000000	0.349512  	190.000000	0.347007  	190.000000	0.345781  	190.000000	0.347012  	190.000000	0.349324  	190.000000	0.000187717	
195.000000	0.133373  	195.000000	0.343525  	195.000000	0.341093  	195.000000	0.339872  	195.000000	0.341097  	195.000000	0.343342  	195.000000	0.000183274	
200.000000	0.131266  	200.000000	0.337827  	200.000000	0.335468  	200.000000	0.334251  	200.000000	0.33547   	200.000000	0.337648  	200.000000	0.000179043	
210.000000	0.127336  	210.000000	0.327216  	210.000000	0.325001  	210.000000	0.323793  	210.000000	0.325001  	210.000000	0.327045  	210.000000	0.000171162	
220.000000	0.123744  	220.000000	0.317538  	220.000000	0.315465  	220.000000	0.314266  	220.000000	0.315462  	220.000000	0.317374  	220.000000	0.000163969	
230.000000	0.120448  	230.000000	0.308675  	230.000000	0.306742  	230.000000	0.305551  	230.000000	0.306736  	230.000000	0.308517  	230.000000	0.000157376	
240.000000	0.117413  	240.000000	0.300528  	240.000000	0.298732  	240.000000	0.297551  	240.000000	0.298725  	240.000000	0.300377  	240.000000	0.000151311	
250.000000	0.114608  	250.000000	0.293015  	250.000000	0.291359  	250.000000	0.290181  	250.000000	0.291345  	250.000000	0.292869  	250.000000	0.000145712	
260.000000	0.112009  	260.000000	0.286065  	260.000000	0.284529  	260.000000	0.283372  	260.000000	0.284525  	260.000000	0.285925  	260.000000	0.000140526	
270.000000	0.109593  	270.000000	0.279618  	270.000000	0.278192  	270.000000	0.277062  	270.000000	0.278205  	270.000000	0.279483  	270.000000	0.000135709	
280.000000	0.107342  	280.000000	0.273622  	280.000000	0.272325  	280.000000	0.2712    	280.000000	0.272333  	280.000000	0.273491  	280.000000	0.000131223	
290.000000	0.10524   	290.000000	0.268032  	290.000000	0.266859  	290.000000	0.26574   	290.000000	0.266865  	290.000000	0.267905  	290.000000	0.000127034	
300.000000	0.103271  	300.000000	0.262808  	300.000000	0.261756  	300.000000	0.260644  	300.000000	0.261759  	300.000000	0.262684  	300.000000	0.000123113	
310.000000	0.101425  	310.000000	0.257916  	310.000000	0.256983  	310.000000	0.255876  	310.000000	0.256983  	310.000000	0.257796  	310.000000	0.000119435	
320.000000	0.0996896 	320.000000	0.253326  	320.000000	0.252509  	320.000000	0.251407  	320.000000	0.252506  	320.000000	0.25321   	320.000000	0.000115978	
330.000000	0.0980555 	330.000000	0.249011  	330.000000	0.248306  	330.000000	0.247211  	330.000000	0.248302  	330.000000	0.248899  	330.000000	0.000112722	
340.000000	0.0965143 	340.000000	0.244949  	340.000000	0.244355  	340.000000	0.243264  	340.000000	0.244347  	340.000000	0.24484   	340.000000	0.000109651	
350.000000	0.0950584 	350.000000	0.241118  	350.000000	0.240633  	350.000000	0.239545  	350.000000	0.24062   	350.000000	0.241011  	350.000000	0.000106748	
360.000000	0.0936809 	360.000000	0.237499  	360.000000	0.23711   	360.000000	0.236035  	360.000000	0.237104  	360.000000	0.237395  	360.000000	0.000104  	
370.000000	0.0923759 	370.000000	0.234076  	370.000000	0.233775  	370.000000	0.232719  	370.000000	0.23378   	370.000000	0.233975  	370.000000	0.000101394	
380.000000	0.0911379 	380.000000	0.230834  	380.000000	0.230627  	380.000000	0.22958   	380.000000	0.230635  	380.000000	0.230735  	380.000000	9.89208e-05	
390.000000	0.089962  	390.000000	0.227759  	390.000000	0.227651  	390.000000	0.226606  	390.000000	0.227654  	390.000000	0.227663  	390.000000	9.65692e-05	
400.000000	0.0888437 	400.000000	0.22484   	400.000000	0.224826  	400.000000	0.223785  	400.000000	0.224827  	400.000000	0.224745  	400.000000	9.43306e-05	
410.000000	0.087779  	410.000000	0.222064  	410.000000	0.222142  	410.000000	0.221105  	410.000000	0.222141  	410.000000	0.221972  	410.000000	9.2197e-05	
