Energy (MeV/u)1	0 - [He-base] F.Hubert et al, AD&ND Tables 46(1990)1	Energy (MeV/u)2	1 - [H -base] J.F.Ziegler et al,Pergamon Press,NY(low energy)	Energy (MeV/u)3	2 - ATIMA 1.2 LS-theory (recommended for high energy)	Energy (MeV/u)4	3 - ATIMA 1.2 without LS-correction	Energy (MeV/u)5	4 - ATIMA 1.4 H.Weick, improved mean charge formula for HI	Energy (MeV/u)6	5 - electrical component of [1] - J.F.Ziegler et al	Energy (MeV/u)7	6 - nuclear component of [1] - J.F.Ziegler et al	
0.001000	0.206423  	0.001000	0.117045  	0.001000	0.11344   	0.001000	0.11344   	0.001000	0.113369  	0.001000	0.100343  	0.001000	0.0167023 	
0.002000	0.24593   	0.002000	0.149906  	0.002000	0.144981  	0.002000	0.144981  	0.002000	0.144936  	0.002000	0.137073  	0.002000	0.0128329 	
0.005000	0.32298   	0.005000	0.215021  	0.005000	0.207582  	0.005000	0.207582  	0.005000	0.207561  	0.005000	0.207026  	0.005000	0.0079949 	
0.008000	0.375814  	0.008000	0.261789  	0.008000	0.252598  	0.008000	0.252598  	0.008000	0.252585  	0.008000	0.255787  	0.008000	0.00600169	
0.010000	0.40462   	0.010000	0.287999  	0.010000	0.277838  	0.010000	0.277838  	0.010000	0.277827  	0.010000	0.282806  	0.010000	0.00519364	
0.015000	0.488016  	0.015000	0.340578  	0.015000	0.331164  	0.015000	0.331164  	0.015000	0.331157  	0.015000	0.336632  	0.015000	0.00394594	
0.020000	0.556346  	0.020000	0.380231  	0.020000	0.375633  	0.020000	0.375633  	0.020000	0.375628  	0.020000	0.37704   	0.020000	0.0031908 	
0.025000	0.612858  	0.025000	0.410584  	0.025000	0.414498  	0.025000	0.414498  	0.025000	0.414494  	0.025000	0.407869  	0.025000	0.00271492	
0.030000	0.659287  	0.030000	0.433652  	0.030000	0.434413  	0.030000	0.434413  	0.030000	0.43441   	0.030000	0.43128   	0.030000	0.00237294	
0.035000	0.696776  	0.035000	0.450856  	0.035000	0.449506  	0.035000	0.449506  	0.035000	0.449503  	0.035000	0.448742  	0.035000	0.00211402	
0.040000	0.726226  	0.040000	0.463289  	0.040000	0.460692  	0.040000	0.460692  	0.040000	0.460689  	0.040000	0.461379  	0.040000	0.00191047	
0.045000	0.748445  	0.045000	0.471845  	0.045000	0.468677  	0.045000	0.468677  	0.045000	0.468675  	0.045000	0.4701    	0.045000	0.00174578	
0.050000	0.764212  	0.050000	0.47727   	0.050000	0.474029  	0.050000	0.474029  	0.050000	0.474027  	0.050000	0.475661  	0.050000	0.00160952	
0.055000	0.774294  	0.055000	0.480191  	0.055000	0.477218  	0.055000	0.477218  	0.055000	0.477217  	0.055000	0.478696  	0.055000	0.0014947 	
0.060000	0.779447  	0.060000	0.48113   	0.060000	0.478639  	0.060000	0.478639  	0.060000	0.478638  	0.060000	0.479734  	0.060000	0.00139651	
0.070000	0.777842  	0.070000	0.478726  	0.070000	0.477451  	0.070000	0.477451  	0.070000	0.47745   	0.070000	0.477489  	0.070000	0.00123705	
0.080000	0.764696  	0.080000	0.472657  	0.080000	0.472539  	0.080000	0.472539  	0.080000	0.472538  	0.080000	0.471544  	0.080000	0.00111277	
0.090000	0.744373  	0.090000	0.464606  	0.090000	0.465352  	0.090000	0.465352  	0.090000	0.465351  	0.090000	0.463593  	0.090000	0.00101292	
0.100000	0.720179  	0.100000	0.455617  	0.100000	0.456884  	0.100000	0.456884  	0.100000	0.456884  	0.100000	0.454686  	0.100000	0.000930785	
0.120000	0.668683  	0.120000	0.437047  	0.120000	0.438513  	0.120000	0.438513  	0.120000	0.438513  	0.120000	0.436243  	0.120000	0.000803279	
0.140000	0.620388  	0.140000	0.419319  	0.140000	0.420323  	0.140000	0.420323  	0.140000	0.420323  	0.140000	0.41861   	0.140000	0.000708544	
0.160000	0.578462  	0.160000	0.403042  	0.160000	0.403361  	0.160000	0.403361  	0.160000	0.40336   	0.160000	0.402407  	0.160000	0.00063515	
0.180000	0.543039  	0.180000	0.388234  	0.180000	0.387879  	0.180000	0.387879  	0.180000	0.387879  	0.180000	0.387658  	0.180000	0.000576475	
0.200000	0.513233  	0.200000	0.374743  	0.200000	0.373826  	0.200000	0.373826  	0.200000	0.373826  	0.200000	0.374214  	0.200000	0.000528406	
0.250000	0.45663   	0.250000	0.345664  	0.250000	0.343919  	0.250000	0.343919  	0.250000	0.343919  	0.250000	0.345225  	0.250000	0.000438954	
0.300000	0.416269  	0.300000	0.3216    	0.300000	0.319634  	0.300000	0.319634  	0.300000	0.319633  	0.300000	0.321224  	0.300000	0.000376844	
0.350000	0.385279  	0.350000	0.301192  	0.350000	0.299319  	0.350000	0.299319  	0.350000	0.299319  	0.350000	0.300861  	0.350000	0.000331017	
0.400000	0.360148  	0.400000	0.28358   	0.400000	0.281935  	0.400000	0.281935  	0.400000	0.281935  	0.400000	0.283284  	0.400000	0.00029571	
0.450000	0.338997  	0.450000	0.268181  	0.450000	0.266808  	0.450000	0.266808  	0.450000	0.266807  	0.450000	0.267914  	0.450000	0.000267612	
0.500000	0.320742  	0.500000	0.254579  	0.500000	0.253474  	0.500000	0.253474  	0.500000	0.253474  	0.500000	0.254334  	0.500000	0.000244682	
0.600000	0.290438  	0.600000	0.231587  	0.600000	0.230948  	0.600000	0.230948  	0.600000	0.230948  	0.600000	0.231378  	0.600000	0.000209427	
0.700000	0.266013  	0.700000	0.21285   	0.700000	0.212563  	0.700000	0.212563  	0.700000	0.212563  	0.700000	0.212667  	0.700000	0.000183513	
0.800000	0.245754  	0.800000	0.197253  	0.800000	0.197217  	0.800000	0.197217  	0.800000	0.197217  	0.800000	0.197089  	0.800000	0.000163608	
0.900000	0.228612  	0.900000	0.184044  	0.900000	0.184184  	0.900000	0.184184  	0.900000	0.184184  	0.900000	0.183896  	0.900000	0.000147809	
1.000000	0.213886  	1.000000	0.172698  	1.000000	0.172958  	1.000000	0.172958  	1.000000	0.172958  	1.000000	0.172563  	1.000000	0.000134944	
1.250000	0.184698  	1.250000	0.150219  	1.250000	0.150627  	1.250000	0.150627  	1.250000	0.150627  	1.250000	0.150108  	1.250000	0.000111201	
1.500000	0.162953  	1.500000	0.133474  	1.500000	0.13391   	1.500000	0.13391   	1.500000	0.13391   	1.500000	0.133379  	1.500000	9.48773e-05	
1.750000	0.146074  	1.750000	0.120461  	1.750000	0.120874  	1.750000	0.120874  	1.750000	0.120874  	1.750000	0.120378  	1.750000	8.29249e-05	
2.000000	0.13256   	2.000000	0.110024  	2.000000	0.110391  	2.000000	0.110391  	2.000000	0.110391  	2.000000	0.10995   	2.000000	7.37732e-05	
2.250000	0.121479  	2.250000	0.101444  	2.250000	0.101757  	2.250000	0.101757  	2.250000	0.101757  	2.250000	0.101377  	2.250000	6.6528e-05	
2.500000	0.11173   	2.500000	0.0942511 	2.500000	0.0945088 	2.500000	0.0945088 	2.500000	0.0945089 	2.500000	0.0941904 	2.500000	6.06415e-05	
3.000000	0.0975606 	3.000000	0.0828333 	3.000000	0.0829869 	3.000000	0.0829869 	3.000000	0.0829869 	3.000000	0.0827817 	3.000000	5.16395e-05	
3.500000	0.0868065 	3.500000	0.0741412 	3.500000	0.0742051 	3.500000	0.0742051 	3.500000	0.0742051 	3.500000	0.0740962 	3.500000	4.50632e-05	
4.000000	0.0783425 	4.000000	0.067277  	4.000000	0.067266  	4.000000	0.067266  	4.000000	0.067266  	4.000000	0.067237  	4.000000	4.00373e-05	
4.500000	0.0714933 	4.500000	0.0617028 	4.500000	0.0616297 	4.500000	0.0616297 	4.500000	0.0616297 	4.500000	0.0616667 	4.500000	3.60646e-05	
5.000000	0.0658281 	5.000000	0.0570755 	5.000000	0.0569509 	5.000000	0.0569509 	5.000000	0.0569509 	5.000000	0.0570426 	5.000000	3.28413e-05	
5.500000	0.0610583 	5.500000	0.0531655 	5.500000	0.052998  	5.500000	0.052998  	5.500000	0.052998  	5.500000	0.0531353 	5.500000	3.01708e-05	
6.000000	0.056983  	6.000000	0.0498128 	6.000000	0.0496095 	6.000000	0.0496095 	6.000000	0.0496095 	6.000000	0.0497849 	6.000000	2.79202e-05	
6.500000	0.0534578 	6.500000	0.0469025 	6.500000	0.046669  	6.500000	0.046669  	6.500000	0.046669  	6.500000	0.0468765 	6.500000	2.59964e-05	
7.000000	0.0503763 	7.000000	0.0443496 	7.000000	0.0440907 	7.000000	0.0440907 	7.000000	0.0440907 	7.000000	0.0443252 	7.000000	2.4332e-05	
7.500000	0.0476579 	7.500000	0.0420899 	7.500000	0.0418095 	7.500000	0.0418095 	7.500000	0.0418095 	7.500000	0.042067  	7.500000	2.28771e-05	
8.000000	0.0452408 	8.000000	0.0400741 	8.000000	0.0397753 	8.000000	0.0397753 	8.000000	0.0397753 	8.000000	0.0400525 	8.000000	2.1594e-05	
8.500000	0.0430766 	8.500000	0.0382633 	8.500000	0.0379489 	8.500000	0.0379489 	8.500000	0.0379489 	8.500000	0.0382429 	8.500000	2.04534e-05	
9.000000	0.0411268 	9.000000	0.0366268 	9.000000	0.036299  	9.000000	0.036299  	9.000000	0.0362991 	9.000000	0.0366074 	9.000000	1.94326e-05	
9.500000	0.0393604 	9.500000	0.0351397 	9.500000	0.0348005 	9.500000	0.0348005 	9.500000	0.0348005 	9.500000	0.0351212 	9.500000	1.85133e-05	
10.000000	0.0377522 	10.000000	0.0339433 	10.000000	0.0334327 	10.000000	0.0334327 	10.000000	0.0334327 	10.000000	0.0339257 	10.000000	1.76809e-05	
11.000000	0.0349308 	11.000000	0.0316292 	11.000000	0.0310326 	11.000000	0.031033  	11.000000	0.0310304 	11.000000	0.0316129 	11.000000	1.62311e-05	
12.000000	0.0325348 	12.000000	0.0296286 	12.000000	0.0289886 	12.000000	0.0289892 	12.000000	0.0289869 	12.000000	0.0296136 	12.000000	1.50103e-05	
13.000000	0.030473  	13.000000	0.0278821 	13.000000	0.0272259 	13.000000	0.0272263 	13.000000	0.0272248 	13.000000	0.0278682 	13.000000	1.39676e-05	
14.000000	0.0286789 	14.000000	0.0263442 	14.000000	0.0256891 	14.000000	0.025689  	14.000000	0.0256883 	14.000000	0.0263311 	14.000000	1.30662e-05	
15.000000	0.0271027 	15.000000	0.0249793 	15.000000	0.0243358 	15.000000	0.0243358 	15.000000	0.0243357 	15.000000	0.024967  	15.000000	1.22787e-05	
16.000000	0.0257062 	16.000000	0.0237596 	16.000000	0.0231354 	16.000000	0.023135  	16.000000	0.0231353 	16.000000	0.023748  	16.000000	1.15847e-05	
17.000000	0.0244599 	17.000000	0.0226631 	17.000000	0.0220631 	17.000000	0.0220619 	17.000000	0.0220625 	17.000000	0.0226521 	17.000000	1.09681e-05	
18.000000	0.0233404 	18.000000	0.0216717 	18.000000	0.0210984 	18.000000	0.0210967 	18.000000	0.0210977 	18.000000	0.0216613 	18.000000	1.04164e-05	
19.000000	0.0223288 	19.000000	0.0207709 	19.000000	0.0202256 	19.000000	0.0202239 	19.000000	0.0202251 	19.000000	0.020761  	19.000000	9.91995e-06	
20.000000	0.0214101 	20.000000	0.0199487 	20.000000	0.0194323 	20.000000	0.0194306 	20.000000	0.0194322 	20.000000	0.0199392 	20.000000	9.47059e-06	
21.000000	0.0205717 	21.000000	0.0191951 	21.000000	0.0187082 	21.000000	0.0187064 	21.000000	0.0187083 	21.000000	0.0191861 	21.000000	9.06185e-06	
22.000000	0.0198034 	22.000000	0.0185018 	22.000000	0.0180444 	22.000000	0.0180426 	22.000000	0.0180448 	22.000000	0.0184932 	22.000000	8.68839e-06	
23.000000	0.0190966 	23.000000	0.0178618 	23.000000	0.0174338 	23.000000	0.017432  	23.000000	0.0174345 	23.000000	0.0178534 	23.000000	8.34578e-06	
24.000000	0.018444  	24.000000	0.017269  	24.000000	0.016871  	24.000000	0.0168684 	24.000000	0.0168713 	24.000000	0.017261  	24.000000	8.03028e-06	
25.000000	0.0178395 	25.000000	0.0167184 	25.000000	0.0163504 	25.000000	0.0163467 	25.000000	0.0163499 	25.000000	0.0167106 	25.000000	7.73876e-06	
27.000000	0.0167548 	27.000000	0.0157265 	27.000000	0.0154165 	27.000000	0.0154117 	27.000000	0.0154155 	27.000000	0.0157193 	27.000000	7.21734e-06	
29.000000	0.0158086 	29.000000	0.0148577 	29.000000	0.014603  	29.000000	0.0145983 	29.000000	0.0146026 	29.000000	0.0148509 	29.000000	6.7644e-06	
31.000000	0.0149756 	31.000000	0.01409   	31.000000	0.0138726 	31.000000	0.0138679 	31.000000	0.0138725 	31.000000	0.0140836 	31.000000	6.3671e-06	
33.000000	0.0142362 	33.000000	0.0134066 	33.000000	0.0132071 	33.000000	0.0132027 	33.000000	0.0132073 	33.000000	0.0134005 	33.000000	6.01566e-06	
35.000000	0.0135753 	35.000000	0.0127941 	35.000000	0.0126102 	35.000000	0.0126063 	35.000000	0.012611  	35.000000	0.0127884 	35.000000	5.70247e-06	
38.000000	0.0127051 	38.000000	0.0119857 	38.000000	0.011824  	38.000000	0.0118187 	38.000000	0.0118234 	38.000000	0.0119804 	38.000000	5.29163e-06	
41.000000	0.0119535 	41.000000	0.0112857 	41.000000	0.0111415 	41.000000	0.0111361 	41.000000	0.0111408 	41.000000	0.0112807 	41.000000	4.93813e-06	
44.000000	0.0112973 	44.000000	0.0106733 	44.000000	0.0105434 	44.000000	0.0105384 	44.000000	0.010543  	44.000000	0.0106687 	44.000000	4.63062e-06	
47.000000	0.0107192 	47.000000	0.010133  	47.000000	0.0100152 	47.000000	0.0100104 	47.000000	0.0100151 	47.000000	0.0101286 	47.000000	4.36057e-06	
50.000000	0.0102057 	50.000000	0.00965247	50.000000	0.00954495	50.000000	0.00954049	50.000000	0.00954507	50.000000	0.00964835	50.000000	4.12143e-06	
55.000000	0.00946597	55.000000	0.00895964	55.000000	0.00886609	55.000000	0.00886198	55.000000	0.00886647	55.000000	0.00895586	55.000000	3.77826e-06	
60.000000	0.00884144	60.000000	0.00837419	60.000000	0.00829177	60.000000	0.00828771	60.000000	0.0082921 	60.000000	0.0083707 	60.000000	3.48978e-06	
65.000000	0.00830663	65.000000	0.00787272	65.000000	0.00779983	65.000000	0.00779503	65.000000	0.00779933	65.000000	0.00786947	65.000000	3.24372e-06	
70.000000	0.00784316	70.000000	0.00743816	70.000000	0.00737184	70.000000	0.00736747	70.000000	0.00737168	70.000000	0.00743513	70.000000	3.03128e-06	
75.000000	0.00743736	75.000000	0.00705782	75.000000	0.00699687	75.000000	0.00699275	75.000000	0.00699687	75.000000	0.00705498	75.000000	2.84592e-06	
80.000000	0.00707889	80.000000	0.00672206	80.000000	0.00666541	80.000000	0.00666152	80.000000	0.00666556	80.000000	0.00671938	80.000000	2.68271e-06	
85.000000	0.00675975	85.000000	0.00642338	85.000000	0.00637022	85.000000	0.00636653	85.000000	0.00637049	85.000000	0.00642084	85.000000	2.53788e-06	
90.000000	0.00647368	90.000000	0.00615591	90.000000	0.00610561	90.000000	0.00610207	90.000000	0.00610596	90.000000	0.0061535 	90.000000	2.40843e-06	
95.000000	0.00621567	95.000000	0.00591495	95.000000	0.00586779	95.000000	0.00586359	95.000000	0.00586741	95.000000	0.00591266	95.000000	2.29202e-06	
100.000000	0.0059817 	100.000000	0.00569671	100.000000	0.00565141	100.000000	0.00564739	100.000000	0.00565115	100.000000	0.00569452	100.000000	2.18674e-06	
105.000000	0.00576847	105.000000	0.00549808	105.000000	0.00545431	105.000000	0.00545047	105.000000	0.00545416	105.000000	0.00549599	105.000000	2.09106e-06	
110.000000	0.0055733 	110.000000	0.00531653	110.000000	0.00527402	110.000000	0.00527032	110.000000	0.00527395	110.000000	0.00531452	110.000000	2.0037e-06	
115.000000	0.00539391	115.000000	0.00514991	115.000000	0.00510844	115.000000	0.00510488	115.000000	0.00510846	115.000000	0.00514798	115.000000	1.92361e-06	
120.000000	0.00522843	120.000000	0.00499644	120.000000	0.00495584	120.000000	0.0049524 	120.000000	0.00495593	120.000000	0.00499459	120.000000	1.84991e-06	
125.000000	0.00507526	125.000000	0.00485461	125.000000	0.00481474	125.000000	0.00481141	125.000000	0.00481488	125.000000	0.00485283	125.000000	1.78185e-06	
130.000000	0.00493304	130.000000	0.00472314	130.000000	0.00468386	130.000000	0.00468064	130.000000	0.00468407	130.000000	0.00472143	130.000000	1.7188e-06	
135.000000	0.00480061	135.000000	0.00460093	135.000000	0.00456208	135.000000	0.00455902	135.000000	0.0045624 	135.000000	0.00459927	135.000000	1.66023e-06	
140.000000	0.00467696	140.000000	0.00448702	140.000000	0.00444889	140.000000	0.00444562	140.000000	0.00444895	140.000000	0.00448541	140.000000	1.60566e-06	
145.000000	0.00456123	145.000000	0.00438058	145.000000	0.00434319	145.000000	0.00433962	145.000000	0.00434291	145.000000	0.00437903	145.000000	1.55469e-06	
150.000000	0.00445266	150.000000	0.00428091	150.000000	0.00424378	150.000000	0.00424032	150.000000	0.00424358	150.000000	0.00427941	150.000000	1.50698e-06	
155.000000	0.00429979	155.000000	0.00418738	155.000000	0.00415045	155.000000	0.00414711	155.000000	0.00415033	155.000000	0.00418592	155.000000	1.46221e-06	
160.000000	0.00421019	160.000000	0.00409943	160.000000	0.00406271	160.000000	0.00405944	160.000000	0.00406262	160.000000	0.00409801	160.000000	1.42012e-06	
165.000000	0.00412569	165.000000	0.00401657	165.000000	0.00398002	165.000000	0.00397683	165.000000	0.00397998	165.000000	0.00401519	165.000000	1.38048e-06	
170.000000	0.00404587	170.000000	0.00393838	170.000000	0.00390197	170.000000	0.00389885	170.000000	0.00390197	170.000000	0.00393703	170.000000	1.34307e-06	
175.000000	0.00397035	175.000000	0.00386446	175.000000	0.00382818	175.000000	0.00382513	175.000000	0.00382822	175.000000	0.00386315	175.000000	1.30771e-06	
180.000000	0.00389877	180.000000	0.00379448	180.000000	0.00375831	180.000000	0.00375533	180.000000	0.00375839	180.000000	0.00379321	180.000000	1.27423e-06	
185.000000	0.00383084	185.000000	0.00372813	185.000000	0.00369207	185.000000	0.00368915	185.000000	0.00369217	185.000000	0.00372689	185.000000	1.24248e-06	
190.000000	0.00376628	190.000000	0.00366514	190.000000	0.00362918	190.000000	0.0036263 	190.000000	0.0036293 	190.000000	0.00366393	190.000000	1.21234e-06	
195.000000	0.00370485	195.000000	0.00360525	195.000000	0.00356934	195.000000	0.00356655	195.000000	0.00356952	195.000000	0.00360407	195.000000	1.18368e-06	
200.000000	0.00364631	200.000000	0.00354824	200.000000	0.00351239	200.000000	0.00350968	200.000000	0.00351262	200.000000	0.00354709	200.000000	1.15639e-06	
210.000000	0.00353714	210.000000	0.00344208	210.000000	0.00340679	210.000000	0.00340376	210.000000	0.00340666	210.000000	0.00344098	210.000000	1.10554e-06	
220.000000	0.00343736	220.000000	0.00334525	220.000000	0.00331018	220.000000	0.00330716	220.000000	0.00331001	220.000000	0.00334419	220.000000	1.05914e-06	
230.000000	0.00334581	230.000000	0.00325656	230.000000	0.0032216 	230.000000	0.0032187 	230.000000	0.00322151	230.000000	0.00325554	230.000000	1.0166e-06	
240.000000	0.00326149	240.000000	0.00317504	240.000000	0.00314023	240.000000	0.00313741	240.000000	0.00314018	240.000000	0.00317406	240.000000	9.77466e-07	
250.000000	0.00318358	250.000000	0.00309985	250.000000	0.00306521	250.000000	0.00306247	250.000000	0.0030652 	250.000000	0.00309891	250.000000	9.41337e-07	
260.000000	0.00311138	260.000000	0.0030303 	260.000000	0.00299582	260.000000	0.00299316	260.000000	0.00299586	260.000000	0.00302939	260.000000	9.07874e-07	
270.000000	0.00304427	270.000000	0.00296577	270.000000	0.00293149	270.000000	0.00292889	270.000000	0.00293155	270.000000	0.0029649 	270.000000	8.76791e-07	
280.000000	0.00298174	280.000000	0.00290575	280.000000	0.00287167	280.000000	0.00286913	280.000000	0.00287176	280.000000	0.00290491	280.000000	8.47838e-07	
290.000000	0.00292333	290.000000	0.00284979	290.000000	0.00281588	290.000000	0.00281344	290.000000	0.00281605	290.000000	0.00284897	290.000000	8.20803e-07	
300.000000	0.00286866	300.000000	0.00279749	300.000000	0.00276399	300.000000	0.00276143	300.000000	0.002764  	300.000000	0.0027967 	300.000000	7.95497e-07	
310.000000	0.00281737	310.000000	0.00274851	310.000000	0.00271547	310.000000	0.00271274	310.000000	0.00271529	310.000000	0.00274774	310.000000	7.71759e-07	
320.000000	0.00276916	320.000000	0.00270256	320.000000	0.00266976	320.000000	0.00266709	320.000000	0.00266961	320.000000	0.00270181	320.000000	7.49445e-07	
330.000000	0.00272377	330.000000	0.00265935	330.000000	0.00262679	330.000000	0.0026242 	330.000000	0.0026267 	330.000000	0.00265862	330.000000	7.2843e-07	
340.000000	0.00268096	340.000000	0.00261867	340.000000	0.00258639	340.000000	0.00258383	340.000000	0.00258631	340.000000	0.00261796	340.000000	7.08602e-07	
350.000000	0.00264051	350.000000	0.0025803 	350.000000	0.0025483 	350.000000	0.00254579	350.000000	0.00254824	350.000000	0.00257961	350.000000	6.89862e-07	
360.000000	0.00260225	360.000000	0.00254405	360.000000	0.00251234	360.000000	0.00250987	360.000000	0.00251231	360.000000	0.00254337	360.000000	6.72122e-07	
370.000000	0.002566  	370.000000	0.00250975	370.000000	0.00247834	370.000000	0.00247592	370.000000	0.00247834	370.000000	0.0025091 	370.000000	6.55303e-07	
380.000000	0.00253161	380.000000	0.00247727	380.000000	0.00244617	380.000000	0.00244378	380.000000	0.00244618	380.000000	0.00247663	380.000000	6.39334e-07	
390.000000	0.00249895	390.000000	0.00244646	390.000000	0.00241567	390.000000	0.00241331	390.000000	0.0024157 	390.000000	0.00244584	390.000000	6.24152e-07	
400.000000	0.00246788	400.000000	0.0024172 	400.000000	0.00238672	400.000000	0.00238441	400.000000	0.00238677	400.000000	0.00241659	400.000000	6.09699e-07	
