Energy (MeV/u)1	0 - [He-base] F.Hubert et al, AD&ND Tables 46(1990)1	Energy (MeV/u)2	1 - [H -base] J.F.Ziegler et al, Pergamon Press, NY (low energy)	Energy (MeV/u)3	2 - ATIMA 1.2  LS-theory (recommended for high energy)	Energy (MeV/u)4	3 - ATIMA 1.2  without LS-correction	Energy (MeV/u)5	4 - electrical component of [1] - J.F.Ziegler et al	Energy (MeV/u)6	5 - nuclear component of [1] - J.F.Ziegler et al	
0.001000	0.994412  	0.001000	0.994412  	0.001000	1.0801    	0.001000	1.0801    	0.001000	0.475073  	0.001000	0.519339  	
0.002000	1.04965   	0.002000	1.04965   	0.002000	1.16248   	0.002000	1.16248   	0.002000	0.635069  	0.002000	0.414584  	
0.005000	1.2033    	0.005000	1.2033    	0.005000	1.36852   	0.005000	1.36852   	0.005000	0.933649  	0.005000	0.269649  	
0.008000	1.34457   	0.008000	1.34457   	0.008000	1.54711   	0.008000	1.54711   	0.008000	1.13854   	0.008000	0.206026  	
0.010000	1.43083   	0.010000	1.43083   	0.010000	1.65434   	0.010000	1.65434   	0.010000	1.25122   	0.010000	0.179602  	
0.015000	1.64578   	0.015000	1.64578   	0.015000	1.90802   	0.015000	1.90802   	0.015000	1.5077    	0.015000	0.138077  	
0.020000	1.94693   	0.020000	1.94693   	0.020000	2.22771   	0.020000	2.22771   	0.020000	1.83342   	0.020000	0.113511  	
0.025000	2.23886   	0.025000	2.23886   	0.025000	2.54368   	0.025000	2.54368   	0.025000	2.1423    	0.025000	0.096557  	
0.030000	2.51969   	0.030000	2.51969   	0.030000	2.78514   	0.030000	2.78514   	0.030000	2.43496   	0.030000	0.084726  	
0.035000	2.78642   	0.035000	2.78642   	0.035000	3.01321   	0.035000	3.01321   	0.035000	2.71101   	0.035000	0.0754142 	
0.040000	3.0383    	0.040000	3.0383    	0.040000	3.22868   	0.040000	3.22868   	0.040000	2.96997   	0.040000	0.0683341 	
0.045000	3.27417   	0.045000	3.27417   	0.045000	3.43143   	0.045000	3.43143   	0.045000	3.21159   	0.045000	0.0625813 	
0.050000	3.49371   	0.050000	3.49371   	0.050000	3.62174   	0.050000	3.62174   	0.050000	3.43591   	0.050000	0.0578045 	
0.055000	3.69703   	0.055000	3.69703   	0.055000	3.79996   	0.055000	3.79996   	0.055000	3.64326   	0.055000	0.0537677 	
0.060000	3.88455   	0.060000	3.88455   	0.060000	3.96654   	0.060000	3.96654   	0.060000	3.83425   	0.060000	0.0503064 	
0.070000	4.21506   	0.070000	4.21506   	0.070000	4.26667   	0.070000	4.26667   	0.070000	4.1704    	0.070000	0.0446678 	
0.080000	4.49219   	0.080000	4.49219   	0.080000	4.52637   	0.080000	4.52637   	0.080000	4.45194   	0.080000	0.0402577 	
0.090000	4.72556   	0.090000	4.72556   	0.090000	4.75009   	0.090000	4.75009   	0.090000	4.68885   	0.090000	0.0367046 	
0.100000	4.9287    	0.100000	4.9287    	0.100000	4.94223   	0.100000	4.94223   	0.100000	4.89493   	0.100000	0.0337747 	
0.120000	5.2412    	0.120000	5.2412    	0.120000	5.24774   	0.120000	5.24774   	0.120000	5.21198   	0.120000	0.0292137 	
0.140000	5.46111   	0.140000	5.46111   	0.140000	5.47068   	0.140000	5.47068   	0.140000	5.4353    	0.140000	0.0258143 	
0.160000	5.61152   	0.160000	5.61152   	0.160000	5.63214   	0.160000	5.63214   	0.160000	5.58835   	0.160000	0.0231742 	
0.180000	5.69347   	0.180000	5.69347   	0.180000	5.74751   	0.180000	5.74751   	0.180000	5.67242   	0.180000	0.0210592 	
0.200000	5.74859   	0.200000	5.74859   	0.200000	5.828     	0.200000	5.828     	0.200000	5.72926   	0.200000	0.0193236 	
0.250000	5.81142   	0.250000	5.81142   	0.250000	5.92535   	0.250000	5.92535   	0.250000	5.79534   	0.250000	0.0160863 	
0.300000	5.89667   	0.300000	5.89667   	0.300000	5.93193   	0.300000	5.93193   	0.300000	5.88284   	0.300000	0.0138325 	
0.350000	5.96411   	0.350000	5.96411   	0.350000	5.88982   	0.350000	5.88982   	0.350000	5.95195   	0.350000	0.012166  	
0.400000	5.95624   	0.400000	5.95624   	0.400000	5.83      	0.400000	5.83      	0.400000	5.94536   	0.400000	0.0108799 	
0.450000	5.91761   	0.450000	5.91761   	0.450000	5.79707   	0.450000	5.79707   	0.450000	5.90776   	0.450000	0.00985505	
0.500000	5.89324   	0.500000	5.89324   	0.500000	5.74347   	0.500000	5.74347   	0.500000	5.88422   	0.500000	0.00901768	
0.600000	5.82169   	0.600000	5.82169   	0.600000	5.60494   	0.600000	5.60494   	0.600000	5.81396   	0.600000	0.00772834	
0.700000	5.7208    	0.700000	5.7208    	0.700000	5.43665   	0.700000	5.43665   	0.700000	5.71402   	0.700000	0.00677909	
0.800000	5.59415   	0.800000	5.59415   	0.800000	5.26809   	0.800000	5.26809   	0.800000	5.5881    	0.800000	0.00604904	
0.900000	5.45993   	0.900000	5.45993   	0.900000	5.10732   	0.900000	5.10732   	0.900000	5.45446   	0.900000	0.00546892	
1.000000	5.32302   	1.000000	5.32302   	1.000000	4.95481   	1.000000	4.95481   	1.000000	5.31803   	1.000000	0.00499609	
1.250000	4.94735   	1.250000	4.94735   	1.250000	4.60079   	1.250000	4.60079   	1.250000	4.94323   	1.250000	0.00412236	
1.500000	4.55468   	1.500000	4.55468   	1.500000	4.27805   	1.500000	4.27805   	1.500000	4.55115   	1.500000	0.00352074	
1.750000	4.22247   	1.750000	4.22247   	1.750000	4.00428   	1.750000	4.00428   	1.750000	4.21939   	1.750000	0.0030797 	
2.000000	3.91016   	2.000000	3.91016   	2.000000	3.76611   	2.000000	3.76611   	2.000000	3.90741   	2.000000	0.00274167	
2.250000	3.64576   	2.250000	3.64576   	2.250000	3.55588   	2.250000	3.55588   	2.250000	3.64329   	2.250000	0.00247384	
2.500000	3.44649   	2.500000	3.42328   	2.500000	3.36851   	2.500000	3.36851   	2.500000	3.42103   	2.500000	0.00225608	
3.000000	3.09606   	3.000000	3.06461   	3.000000	3.04857   	3.000000	3.04857   	3.000000	3.06269   	3.000000	0.00192279	
3.500000	2.81195   	3.500000	2.7825    	3.500000	2.7855    	3.500000	2.7855    	3.500000	2.78082   	3.500000	0.00167907	
4.000000	2.57744   	4.000000	2.55379   	4.000000	2.56555   	4.000000	2.56555   	4.000000	2.5523    	4.000000	0.00149265	
4.500000	2.38075   	4.500000	2.36376   	4.500000	2.37907   	4.500000	2.37907   	4.500000	2.36242   	4.500000	0.0013452 	
5.000000	2.21345   	5.000000	2.20262   	5.000000	2.21901   	5.000000	2.21901   	5.000000	2.20139   	5.000000	0.00122549	
5.500000	2.06942   	5.500000	2.06385   	5.500000	2.08016   	5.500000	2.08016   	5.500000	2.06273   	5.500000	0.00112626	
6.000000	1.9441    	6.000000	1.94291   	6.000000	1.95855   	6.000000	1.95855   	6.000000	1.94187   	6.000000	0.0010426 	
6.500000	1.83405   	6.500000	1.83645   	6.500000	1.85116   	6.500000	1.85116   	6.500000	1.83547   	6.500000	0.000971059	
7.000000	1.73662   	7.000000	1.74193   	7.000000	1.75562   	7.000000	1.75562   	7.000000	1.74102   	7.000000	0.00090914	
7.500000	1.64974   	7.500000	1.6574    	7.500000	1.67004   	7.500000	1.67004   	7.500000	1.65655   	7.500000	0.000854997	
8.000000	1.57177   	8.000000	1.58133   	8.000000	1.59294   	8.000000	1.59294   	8.000000	1.58053   	8.000000	0.000807231	
8.500000	1.50138   	8.500000	1.51248   	8.500000	1.5231    	8.500000	1.5231    	8.500000	1.51172   	8.500000	0.00076476	
9.000000	1.43752   	9.000000	1.44985   	9.000000	1.45952   	9.000000	1.45952   	9.000000	1.44912   	9.000000	0.000726738	
9.500000	1.3793    	9.500000	1.39261   	9.500000	1.40138   	9.500000	1.40138   	9.500000	1.39192   	9.500000	0.000692489	
10.000000	1.326     	10.000000	1.34947   	10.000000	1.34802   	10.000000	1.34802   	10.000000	1.34881   	10.000000	0.000661471	
11.000000	1.23182   	11.000000	1.25581   	11.000000	1.25198   	11.000000	1.25292   	11.000000	1.2552    	11.000000	0.000607428	
12.000000	1.15119   	12.000000	1.1749    	12.000000	1.16941   	12.000000	1.17096   	12.000000	1.17434   	12.000000	0.000561906	
13.000000	1.08133   	13.000000	1.10434   	13.000000	1.09764   	13.000000	1.09958   	13.000000	1.10381   	13.000000	0.000523011	
14.000000	1.0202    	14.000000	1.04226   	14.000000	1.03466   	14.000000	1.03686   	14.000000	1.04177   	14.000000	0.000489374	
15.000000	0.96624   	15.000000	0.987222  	15.000000	0.978937  	15.000000	0.981307  	15.000000	0.986762  	15.000000	0.000459982	
16.000000	0.918231  	16.000000	0.938096  	16.000000	0.92931   	16.000000	0.931756  	16.000000	0.937662  	16.000000	0.000434069	
17.000000	0.875229  	17.000000	0.893976  	17.000000	0.884834  	17.000000	0.887284  	17.000000	0.893565  	17.000000	0.000411042	
18.000000	0.836476  	18.000000	0.854131  	18.000000	0.844708  	18.000000	0.847148  	18.000000	0.85374   	18.000000	0.000390439	
19.000000	0.801362  	19.000000	0.817966  	19.000000	0.808326  	19.000000	0.810747  	19.000000	0.817594  	19.000000	0.00037189	
20.000000	0.769389  	20.000000	0.784991  	20.000000	0.775221  	20.000000	0.777583  	20.000000	0.784636  	20.000000	0.000355098	
21.000000	0.740147  	21.000000	0.7548    	21.000000	0.744974  	21.000000	0.747247  	21.000000	0.75446   	21.000000	0.000339822	
22.000000	0.713294  	22.000000	0.727052  	22.000000	0.717214  	22.000000	0.719395  	22.000000	0.726726  	22.000000	0.000325862	
23.000000	0.688543  	23.000000	0.701459  	23.000000	0.691643  	23.000000	0.693737  	23.000000	0.701146  	23.000000	0.000313052	
24.000000	0.665652  	24.000000	0.677779  	24.000000	0.668015  	24.000000	0.670028  	24.000000	0.677478  	24.000000	0.000301255	
25.000000	0.644416  	25.000000	0.655802  	25.000000	0.646124  	25.000000	0.648057  	25.000000	0.655512  	25.000000	0.000290353	
27.000000	0.606225  	27.000000	0.616268  	27.000000	0.606882  	27.000000	0.608635  	27.000000	0.615997  	27.000000	0.000270849	
29.000000	0.572827  	29.000000	0.581691  	29.000000	0.572765  	29.000000	0.574297  	29.000000	0.581437  	29.000000	0.000253902	
31.000000	0.543359  	31.000000	0.551186  	31.000000	0.543035  	31.000000	0.54429   	31.000000	0.550947  	31.000000	0.000239033	
33.000000	0.517152  	33.000000	0.524066  	33.000000	0.516781  	33.000000	0.517781  	33.000000	0.52384   	33.000000	0.000225878	
35.000000	0.493684  	35.000000	0.499792  	35.000000	0.493269  	35.000000	0.494045  	35.000000	0.499578  	35.000000	0.000214153	
38.000000	0.462728  	38.000000	0.467799  	38.000000	0.462252  	38.000000	0.462744  	38.000000	0.4676    	38.000000	0.000198767	
41.000000	0.435934  	41.000000	0.440136  	41.000000	0.43541   	41.000000	0.435658  	41.000000	0.43995   	41.000000	0.000185526	
44.000000	0.412501  	44.000000	0.415972  	44.000000	0.411872  	44.000000	0.411976  	44.000000	0.415798  	44.000000	0.000174005	
47.000000	0.39182   	47.000000	0.394674  	47.000000	0.391133  	47.000000	0.391083  	47.000000	0.39451   	47.000000	0.000163885	
50.000000	0.373425  	50.000000	0.375756  	50.000000	0.37268   	50.000000	0.372506  	50.000000	0.375601  	50.000000	0.000154921	
55.000000	0.346883  	55.000000	0.348511  	55.000000	0.346015  	55.000000	0.345718  	55.000000	0.348369  	55.000000	0.000142056	
60.000000	0.324432  	60.000000	0.325521  	60.000000	0.323468  	60.000000	0.323078  	60.000000	0.32539   	60.000000	0.000131237	
65.000000	0.305174  	65.000000	0.305851  	65.000000	0.304112  	65.000000	0.303678  	65.000000	0.305729  	65.000000	0.000122008	
70.000000	0.288461  	70.000000	0.288823  	70.000000	0.287375  	70.000000	0.28686   	70.000000	0.288709  	70.000000	0.000114037	
75.000000	0.273809  	75.000000	0.273932  	75.000000	0.272666  	75.000000	0.272134  	75.000000	0.273825  	75.000000	0.000107081	
80.000000	0.260851  	80.000000	0.260796  	80.000000	0.259708  	80.000000	0.259128  	80.000000	0.260695  	80.000000	0.000100956	
85.000000	0.249302  	85.000000	0.249119  	85.000000	0.24814   	85.000000	0.247553  	85.000000	0.249024  	85.000000	9.55186e-05	
90.000000	0.23894   	90.000000	0.238668  	90.000000	0.237808  	90.000000	0.237183  	90.000000	0.238577  	90.000000	9.06584e-05	
95.000000	0.229586  	95.000000	0.229258  	95.000000	0.228463  	95.000000	0.227838  	95.000000	0.229172  	95.000000	8.6287e-05	
100.000000	0.221097  	100.000000	0.220739  	100.000000	0.219997  	100.000000	0.21937   	100.000000	0.220657  	100.000000	8.23332e-05	
105.000000	0.213355  	105.000000	0.212989  	105.000000	0.212286  	105.000000	0.211661  	105.000000	0.212911  	105.000000	7.87392e-05	
110.000000	0.206263  	110.000000	0.205908  	110.000000	0.20526   	110.000000	0.204612  	110.000000	0.205833  	110.000000	7.54575e-05	
115.000000	0.19974   	115.000000	0.199412  	115.000000	0.198796  	115.000000	0.198141  	115.000000	0.199339  	115.000000	7.24484e-05	
120.000000	0.19372   	120.000000	0.19343   	120.000000	0.19283   	120.000000	0.192179  	120.000000	0.193361  	120.000000	6.96791e-05	
125.000000	0.188144  	125.000000	0.187904  	125.000000	0.187318  	125.000000	0.186669  	125.000000	0.187837  	125.000000	6.71215e-05	
130.000000	0.182963  	130.000000	0.182783  	130.000000	0.182207  	130.000000	0.18156   	130.000000	0.182718  	130.000000	6.47519e-05	
135.000000	0.178137  	135.000000	0.178023  	135.000000	0.177454  	135.000000	0.17681   	135.000000	0.177961  	135.000000	6.25502e-05	
140.000000	0.173629  	140.000000	0.173588  	140.000000	0.173024  	140.000000	0.172382  	140.000000	0.173527  	140.000000	6.04989e-05	
145.000000	0.169408  	145.000000	0.169445  	145.000000	0.168884  	145.000000	0.168244  	145.000000	0.169386  	145.000000	5.85829e-05	
150.000000	0.165446  	150.000000	0.165566  	150.000000	0.165006  	150.000000	0.164369  	150.000000	0.165509  	150.000000	5.6789e-05	
155.000000	0.160593  	155.000000	0.161926  	155.000000	0.161367  	155.000000	0.160732  	155.000000	0.161871  	155.000000	5.51058e-05	
160.000000	0.157298  	160.000000	0.158504  	160.000000	0.157945  	160.000000	0.157313  	160.000000	0.158451  	160.000000	5.35232e-05	
165.000000	0.154189  	165.000000	0.155281  	165.000000	0.154721  	165.000000	0.154091  	165.000000	0.155229  	165.000000	5.20324e-05	
170.000000	0.151251  	170.000000	0.15224   	170.000000	0.151679  	170.000000	0.151051  	170.000000	0.152189  	170.000000	5.06255e-05	
175.000000	0.148471  	175.000000	0.149365  	175.000000	0.148802  	175.000000	0.148178  	175.000000	0.149316  	175.000000	4.92955e-05	
180.000000	0.145834  	180.000000	0.146644  	180.000000	0.14608   	180.000000	0.145457  	180.000000	0.146596  	180.000000	4.80362e-05	
185.000000	0.143332  	185.000000	0.144065  	185.000000	0.143498  	185.000000	0.142878  	185.000000	0.144018  	185.000000	4.6842e-05	
190.000000	0.140953  	190.000000	0.141616  	190.000000	0.141047  	190.000000	0.14043   	190.000000	0.14157   	190.000000	4.5708e-05	
195.000000	0.138688  	195.000000	0.139288  	195.000000	0.138718  	195.000000	0.138103  	195.000000	0.139243  	195.000000	4.46296e-05	
200.000000	0.136529  	200.000000	0.137072  	200.000000	0.1365    	200.000000	0.135888  	200.000000	0.137029  	200.000000	4.36029e-05	
210.000000	0.132502  	210.000000	0.132947  	210.000000	0.132372  	210.000000	0.131764  	210.000000	0.132905  	210.000000	4.16899e-05	
220.000000	0.128819  	220.000000	0.129184  	220.000000	0.128607  	220.000000	0.128004  	220.000000	0.129144  	220.000000	3.99435e-05	
230.000000	0.125438  	230.000000	0.125739  	230.000000	0.125161  	230.000000	0.124561  	230.000000	0.1257    	230.000000	3.83427e-05	
240.000000	0.122323  	240.000000	0.122572  	240.000000	0.121993  	240.000000	0.121399  	240.000000	0.122535  	240.000000	3.68697e-05	
250.000000	0.119444  	250.000000	0.119652  	250.000000	0.119076  	250.000000	0.118484  	250.000000	0.119617  	250.000000	3.55097e-05	
260.000000	0.116775  	260.000000	0.116951  	260.000000	0.116371  	260.000000	0.115789  	260.000000	0.116917  	260.000000	3.425e-05 	
270.000000	0.114293  	270.000000	0.114445  	270.000000	0.113859  	270.000000	0.11329   	270.000000	0.114412  	270.000000	3.30798e-05	
280.000000	0.111979  	280.000000	0.112115  	280.000000	0.111533  	280.000000	0.110967  	280.000000	0.112083  	280.000000	3.19896e-05	
290.000000	0.109818  	290.000000	0.109942  	290.000000	0.109367  	290.000000	0.108803  	290.000000	0.109911  	290.000000	3.09716e-05	
300.000000	0.107793  	300.000000	0.107911  	300.000000	0.107342  	300.000000	0.106782  	300.000000	0.107881  	300.000000	3.00187e-05	
310.000000	0.105894  	310.000000	0.10601   	310.000000	0.105448  	310.000000	0.104891  	310.000000	0.105981  	310.000000	2.91247e-05	
320.000000	0.104108  	320.000000	0.104226  	320.000000	0.103672  	320.000000	0.103118  	320.000000	0.104198  	320.000000	2.82843e-05	
330.000000	0.102427  	330.000000	0.102549  	330.000000	0.102003  	330.000000	0.101452  	330.000000	0.102521  	330.000000	2.74927e-05	
340.000000	0.10084   	340.000000	0.10097   	340.000000	0.100434  	340.000000	0.0998848 	340.000000	0.100943  	340.000000	2.67458e-05	
350.000000	0.099341  	350.000000	0.0994801 	350.000000	0.0989553 	350.000000	0.0984078 	350.000000	0.0994541 	350.000000	2.60399e-05	
360.000000	0.0979224 	360.000000	0.098073  	360.000000	0.0975548 	360.000000	0.0970137 	360.000000	0.0980477 	360.000000	2.53716e-05	
370.000000	0.0965781 	370.000000	0.096742  	370.000000	0.0962276 	370.000000	0.0956961 	370.000000	0.0967172 	370.000000	2.47379e-05	
380.000000	0.0953026 	380.000000	0.0954811 	380.000000	0.0949756 	380.000000	0.0944489 	380.000000	0.0954569 	380.000000	2.41362e-05	
390.000000	0.0940908 	390.000000	0.0942851 	390.000000	0.0937927 	390.000000	0.093267  	390.000000	0.0942616 	390.000000	2.35642e-05	
400.000000	0.0929382 	400.000000	0.0931494 	400.000000	0.0926699 	400.000000	0.0921457 	400.000000	0.0931264 	400.000000	2.30196e-05	
410.000000	0.0918407 	410.000000	0.0920696 	410.000000	0.0916024 	410.000000	0.0910805 	410.000000	0.0920471 	410.000000	2.25004e-05	
420.000000	0.0907946 	420.000000	0.0910419 	420.000000	0.0905872 	420.000000	0.0900675 	420.000000	0.0910199 	420.000000	2.20051e-05	
430.000000	0.0897964 	430.000000	0.0900627 	430.000000	0.0896213 	430.000000	0.0891033 	430.000000	0.0900412 	430.000000	2.15318e-05	
440.000000	0.0888432 	440.000000	0.0891288 	440.000000	0.0887018 	440.000000	0.0881845 	440.000000	0.0891078 	440.000000	2.10791e-05	
450.000000	0.087932  	450.000000	0.0882374 	450.000000	0.0878237 	450.000000	0.0873083 	450.000000	0.0882167 	450.000000	2.06458e-05	
460.000000	0.0870602 	460.000000	0.0873856 	460.000000	0.0869822 	460.000000	0.0864718 	460.000000	0.0873654 	460.000000	2.02306e-05	
470.000000	0.0862254 	470.000000	0.0865712 	470.000000	0.0861766 	470.000000	0.0856727 	470.000000	0.0865513 	470.000000	1.98323e-05	
480.000000	0.0854256 	480.000000	0.0857917 	480.000000	0.0854079 	480.000000	0.0849085 	480.000000	0.0857722 	480.000000	1.945e-05 	
490.000000	0.0846586 	490.000000	0.0850451 	490.000000	0.0846749 	490.000000	0.0841773 	490.000000	0.085026  	490.000000	1.90826e-05	
500.000000	0.0839225 	500.000000	0.0843295 	500.000000	0.0839741 	500.000000	0.083477  	500.000000	0.0843107 	500.000000	1.87294e-05	
520.000000	0.0825367 	520.000000	0.0829843 	520.000000	0.0826571 	520.000000	0.0821624 	520.000000	0.0829662 	520.000000	1.8062e-05	
540.000000	0.0812556 	540.000000	0.0817435 	540.000000	0.0814439 	540.000000	0.0809519 	540.000000	0.0817261 	540.000000	1.74422e-05	
560.000000	0.0800687 	560.000000	0.0805962 	560.000000	0.080324  	560.000000	0.0798345 	560.000000	0.0805793 	560.000000	1.68649e-05	
580.000000	0.0789668 	580.000000	0.079533  	580.000000	0.0792866 	580.000000	0.0788006 	580.000000	0.0795167 	580.000000	1.63259e-05	
600.000000	0.0779417 	600.000000	0.0785457 	600.000000	0.0783223 	600.000000	0.0778421 	600.000000	0.0785299 	600.000000	1.58214e-05	
620.000000	0.0769866 	620.000000	0.0776271 	620.000000	0.0774261 	620.000000	0.0769516 	620.000000	0.0776118 	620.000000	1.53482e-05	
640.000000	0.0760952 	640.000000	0.076771  	640.000000	0.0765949 	640.000000	0.0761228 	640.000000	0.0767561 	640.000000	1.49035e-05	
660.000000	0.0752619 	660.000000	0.0759719 	660.000000	0.075821  	660.000000	0.0753502 	660.000000	0.0759574 	660.000000	1.44846e-05	
680.000000	0.074482  	680.000000	0.0752248 	680.000000	0.0750978 	680.000000	0.0746287 	680.000000	0.0752107 	680.000000	1.40895e-05	
700.000000	0.0737512 	700.000000	0.0745254 	700.000000	0.0744218 	700.000000	0.0739541 	700.000000	0.0745117 	700.000000	1.3716e-05	
720.000000	0.0730655 	720.000000	0.0738699 	720.000000	0.0737892 	720.000000	0.0733223 	720.000000	0.0738565 	720.000000	1.33625e-05	
