Energy (MeV/u)1	0 - [He-base] F.Hubert et al, AD&ND Tables 46(1990)1	Energy (MeV/u)2	1 - [H -base] J.F.Ziegler et al,Pergamon Press,NY(low energy)	Energy (MeV/u)3	2 - ATIMA 1.2 LS-theory (recommended for high energy)	Energy (MeV/u)4	3 - ATIMA 1.2 without LS-correction	Energy (MeV/u)5	4 - ATIMA 1.4 H.Weick, improved mean charge formula for HI	Energy (MeV/u)6	5 - electrical component of [1] - J.F.Ziegler et al	Energy (MeV/u)7	6 - nuclear component of [1] - J.F.Ziegler et al	
0.001000	1.7879    	0.001000	0.987438  	0.001000	1.1225    	0.001000	1.1225    	0.001000	1.12257   	0.001000	0.556434  	0.001000	0.431005  	
0.002000	1.95347   	0.002000	1.07795   	0.002000	1.23769   	0.002000	1.23769   	0.002000	1.23774   	0.002000	0.721605  	0.002000	0.356343  	
0.005000	2.36616   	0.005000	1.2583    	0.005000	1.45539   	0.005000	1.45539   	0.005000	1.45542   	0.005000	1.01748   	0.005000	0.24082   	
0.008000	2.69336   	0.008000	1.40042   	0.008000	1.61858   	0.008000	1.61858   	0.008000	1.6186    	0.008000	1.21359   	0.008000	0.186833  	
0.010000	2.88085   	0.010000	1.48341   	0.010000	1.71194   	0.010000	1.71194   	0.010000	1.71196   	0.010000	1.31951   	0.010000	0.163898  	
0.015000	3.35631   	0.015000	1.70938   	0.015000	1.94429   	0.015000	1.94429   	0.015000	1.9443    	0.015000	1.58211   	0.015000	0.127269  	
0.020000	3.73619   	0.020000	2.08226   	0.020000	2.27661   	0.020000	2.27661   	0.020000	2.27662   	0.020000	1.97699   	0.020000	0.105267  	
0.025000	4.15539   	0.025000	2.442     	0.025000	2.60456   	0.025000	2.60456   	0.025000	2.60457   	0.025000	2.35162   	0.025000	0.0903847 	
0.030000	4.51069   	0.030000	2.78331   	0.030000	2.88785   	0.030000	2.88785   	0.030000	2.88786   	0.030000	2.70376   	0.030000	0.0795564 	
0.035000	4.80279   	0.035000	3.1016    	0.035000	3.15149   	0.035000	3.15149   	0.035000	3.1515    	0.035000	3.03097   	0.035000	0.0706263 	
0.040000	5.033     	0.040000	3.39564   	0.040000	3.39672   	0.040000	3.39672   	0.040000	3.39672   	0.040000	3.33151   	0.040000	0.0641368 	
0.045000	5.20377   	0.045000	3.66331   	0.045000	3.62289   	0.045000	3.62289   	0.045000	3.6229    	0.045000	3.60446   	0.045000	0.0588443 	
0.050000	5.31857   	0.050000	3.90422   	0.050000	3.83036   	0.050000	3.83036   	0.050000	3.83037   	0.050000	3.84978   	0.050000	0.0544362 	
0.055000	5.55018   	0.055000	4.11884   	0.055000	4.01968   	0.055000	4.01968   	0.055000	4.01968   	0.055000	4.06814   	0.055000	0.0507016 	
0.060000	5.74746   	0.060000	4.30828   	0.060000	4.19157   	0.060000	4.19157   	0.060000	4.19157   	0.060000	4.26079   	0.060000	0.0474925 	
0.070000	6.04882   	0.070000	4.6182    	0.070000	4.48658   	0.070000	4.48658   	0.070000	4.48658   	0.070000	4.57595   	0.070000	0.0422507 	
0.080000	6.37217   	0.080000	4.84922   	0.080000	4.72321   	0.080000	4.72321   	0.080000	4.72322   	0.080000	4.81108   	0.080000	0.0381388 	
0.090000	6.62619   	0.090000	5.01978   	0.090000	4.90984   	0.090000	4.90984   	0.090000	4.90984   	0.090000	4.98497   	0.090000	0.034818  	
0.100000	6.82993   	0.100000	5.14994   	0.100000	5.05463   	0.100000	5.05463   	0.100000	5.05463   	0.100000	5.11787   	0.100000	0.0320744 	
0.120000	6.95369   	0.120000	5.30689   	0.120000	5.24772   	0.120000	5.24772   	0.120000	5.24773   	0.120000	5.27909   	0.120000	0.0277931 	
0.140000	7.00287   	0.140000	5.38039   	0.140000	5.35121   	0.140000	5.35121   	0.140000	5.35121   	0.140000	5.3558    	0.140000	0.0245941 	
0.160000	7.02029   	0.160000	5.40523   	0.160000	5.39914   	0.160000	5.39914   	0.160000	5.39915   	0.160000	5.38312   	0.160000	0.0221046 	
0.180000	7.01882   	0.180000	5.38753   	0.180000	5.41376   	0.180000	5.41376   	0.180000	5.41377   	0.180000	5.36742   	0.180000	0.0201069 	
0.200000	7.03417   	0.200000	5.36499   	0.200000	5.40897   	0.200000	5.40897   	0.200000	5.40898   	0.200000	5.34652   	0.200000	0.0184653 	
0.250000	6.9058    	0.250000	5.30585   	0.250000	5.35933   	0.250000	5.35933   	0.250000	5.35933   	0.250000	5.29046   	0.250000	0.0153976 	
0.300000	6.93417   	0.300000	5.32557   	0.300000	5.29363   	0.300000	5.29363   	0.300000	5.29363   	0.300000	5.31232   	0.300000	0.0132571 	
0.350000	6.98614   	0.350000	5.35674   	0.350000	5.22675   	0.350000	5.22675   	0.350000	5.22675   	0.350000	5.34507   	0.350000	0.0116718 	
0.400000	6.97394   	0.400000	5.33506   	0.400000	5.16863   	0.400000	5.16863   	0.400000	5.16863   	0.400000	5.32461   	0.400000	0.0104467 	
0.450000	6.93545   	0.450000	5.29361   	0.450000	5.14625   	0.450000	5.14625   	0.450000	5.14625   	0.450000	5.28414   	0.450000	0.00946937	
0.500000	6.91602   	0.500000	5.26896   	0.500000	5.1114    	0.500000	5.1114    	0.500000	5.1114    	0.500000	5.26029   	0.500000	0.00867007	
0.600000	6.6087    	0.600000	5.20363   	0.600000	5.01763   	0.600000	5.01763   	0.600000	5.01763   	0.600000	5.19619   	0.600000	0.00743795	
0.700000	6.26348   	0.700000	5.11496   	0.700000	4.89313   	0.700000	4.89313   	0.700000	4.89313   	0.700000	5.10843   	0.700000	0.00652967	
0.800000	6.13024   	0.800000	5.0043    	0.800000	4.76174   	0.800000	4.76174   	0.800000	4.76174   	0.800000	4.99847   	0.800000	0.00583041	
0.900000	5.98304   	0.900000	4.88743   	0.900000	4.63143   	0.900000	4.63143   	0.900000	4.63143   	0.900000	4.88216   	0.900000	0.00527427	
1.000000	5.82829   	1.000000	4.76829   	1.000000	4.50405   	1.000000	4.50405   	1.000000	4.50406   	1.000000	4.76347   	1.000000	0.00482066	
1.250000	5.38646   	1.250000	4.44114   	1.250000	4.19806   	1.250000	4.19806   	1.250000	4.19806   	1.250000	4.43716   	1.250000	0.0039816 	
1.500000	4.93154   	1.500000	4.09884   	1.500000	3.91167   	1.500000	3.91167   	1.500000	3.91168   	1.500000	4.09544   	1.500000	0.00340316	
1.750000	4.54334   	1.750000	3.80931   	1.750000	3.66623   	1.750000	3.66623   	1.750000	3.66624   	1.750000	3.80633   	1.750000	0.00297871	
2.000000	4.18214   	2.000000	3.53638   	2.000000	3.45175   	2.000000	3.45175   	2.000000	3.45175   	2.000000	3.53373   	2.000000	0.00265314	
2.250000	3.8817    	2.250000	3.30513   	2.250000	3.26209   	2.250000	3.26209   	2.250000	3.26209   	2.250000	3.30274   	2.250000	0.00239503	
2.500000	3.61506   	2.500000	3.1104    	2.500000	3.09298   	2.500000	3.09298   	2.500000	3.09298   	2.500000	3.10822   	2.500000	0.00218505	
3.000000	3.22152   	3.000000	2.796     	3.000000	2.80429   	3.000000	2.80429   	3.000000	2.8043    	3.000000	2.79414   	3.000000	0.00186345	
3.500000	2.90887   	3.500000	2.54806   	3.500000	2.56711   	3.500000	2.56711   	3.500000	2.56711   	3.500000	2.54643   	3.500000	0.0016281 	
4.000000	2.65443   	4.000000	2.34653   	4.000000	2.36893   	4.000000	2.36893   	4.000000	2.36893   	4.000000	2.34508   	4.000000	0.00144798	
4.500000	2.44324   	4.500000	2.17863   	4.500000	2.20095   	4.500000	2.20095   	4.500000	2.20095   	4.500000	2.17732   	4.500000	0.00130543	
5.000000	2.26502   	5.000000	2.03587   	5.000000	2.05678   	5.000000	2.05678   	5.000000	2.05678   	5.000000	2.03468   	5.000000	0.00118965	
5.500000	2.11254   	5.500000	1.91263   	5.500000	1.93168   	5.500000	1.93168   	5.500000	1.93168   	5.500000	1.91153   	5.500000	0.00109364	
6.000000	1.98053   	6.000000	1.80494   	6.000000	1.82207   	6.000000	1.82207   	6.000000	1.82208   	6.000000	1.80393   	6.000000	0.00101267	
6.500000	1.86508   	6.500000	1.70992   	6.500000	1.72523   	6.500000	1.72523   	6.500000	1.72523   	6.500000	1.70898   	6.500000	0.000943396	
7.000000	1.76322   	7.000000	1.62538   	7.000000	1.63901   	7.000000	1.63901   	7.000000	1.63902   	7.000000	1.6245    	7.000000	0.000883427	
7.500000	1.67266   	7.500000	1.54961   	7.500000	1.56174   	7.500000	1.56174   	7.500000	1.56174   	7.500000	1.54878   	7.500000	0.000830977	
8.000000	1.59158   	8.000000	1.48129   	8.000000	1.49205   	8.000000	1.49205   	8.000000	1.49205   	8.000000	1.4805    	8.000000	0.000784693	
8.500000	1.51855   	8.500000	1.41933   	8.500000	1.42888   	8.500000	1.42888   	8.500000	1.42888   	8.500000	1.41858   	8.500000	0.000743532	
9.000000	1.45241   	9.000000	1.36286   	9.000000	1.37132   	9.000000	1.37132   	9.000000	1.37132   	9.000000	1.36215   	9.000000	0.000706674	
9.500000	1.39222   	9.500000	1.31117   	9.500000	1.31864   	9.500000	1.31864   	9.500000	1.31864   	9.500000	1.31049   	9.500000	0.000673468	
10.000000	1.33719   	10.000000	1.26934   	10.000000	1.27024   	10.000000	1.27024   	10.000000	1.27025   	10.000000	1.2687    	10.000000	0.000643388	
11.000000	1.24016   	11.000000	1.18386   	11.000000	1.18237   	11.000000	1.18331   	11.000000	1.18265   	11.000000	1.18327   	11.000000	0.000590969	
12.000000	1.15727   	12.000000	1.10963   	12.000000	1.10651   	12.000000	1.10806   	12.000000	1.10692   	12.000000	1.10908   	12.000000	0.000546802	
13.000000	1.0856    	13.000000	1.04461   	13.000000	1.04031   	13.000000	1.04225   	13.000000	1.04075   	13.000000	1.0441    	13.000000	0.000509054	
14.000000	1.02299   	14.000000	0.987202  	14.000000	0.981977  	14.000000	0.984175  	14.000000	0.982415  	14.000000	0.986726  	14.000000	0.000476401	
15.000000	0.967789  	15.000000	0.936157  	15.000000	0.930148  	15.000000	0.932514  	15.000000	0.930574  	15.000000	0.935709  	15.000000	0.000447864	
16.000000	0.918748  	16.000000	0.890475  	16.000000	0.883796  	16.000000	0.886237  	16.000000	0.884182  	16.000000	0.890053  	16.000000	0.000422698	
17.000000	0.874874  	17.000000	0.849357  	17.000000	0.84208   	17.000000	0.844526  	17.000000	0.842406  	17.000000	0.848957  	17.000000	0.000400332	
18.000000	0.835377  	18.000000	0.812151  	18.000000	0.804284  	18.000000	0.806721  	18.000000	0.804568  	18.000000	0.811771  	18.000000	0.000380316	
19.000000	0.799626  	19.000000	0.778324  	19.000000	0.76987   	19.000000	0.772286  	19.000000	0.770134  	19.000000	0.777962  	19.000000	0.000362293	
20.000000	0.767103  	20.000000	0.747434  	20.000000	0.738424  	20.000000	0.740782  	20.000000	0.738659  	20.000000	0.747088  	20.000000	0.000345976	
21.000000	0.737382  	21.000000	0.719113  	21.000000	0.709571  	21.000000	0.711841  	21.000000	0.709755  	21.000000	0.718782  	21.000000	0.000331128	
22.000000	0.710112  	22.000000	0.693051  	22.000000	0.682979  	22.000000	0.685157  	22.000000	0.68313   	22.000000	0.692734  	22.000000	0.000317559	
23.000000	0.684997  	23.000000	0.668988  	23.000000	0.658381  	23.000000	0.660472  	23.000000	0.65851   	23.000000	0.668683  	23.000000	0.000305106	
24.000000	0.661786  	24.000000	0.6467    	24.000000	0.635555  	24.000000	0.637565  	24.000000	0.635679  	24.000000	0.646407  	24.000000	0.000293635	
25.000000	0.640267  	25.000000	0.625997  	25.000000	0.614318  	25.000000	0.616249  	25.000000	0.614444  	25.000000	0.625714  	25.000000	0.000283034	
27.000000	0.601606  	27.000000	0.588707  	27.000000	0.576012  	27.000000	0.577762  	27.000000	0.576131  	27.000000	0.588442  	27.000000	0.000264066	
29.000000	0.567839  	29.000000	0.556046  	29.000000	0.542427  	29.000000	0.543957  	29.000000	0.542507  	29.000000	0.555798  	29.000000	0.00024758	
31.000000	0.538078  	31.000000	0.527195  	31.000000	0.513773  	31.000000	0.515026  	31.000000	0.513822  	31.000000	0.526962  	31.000000	0.000233115	
33.000000	0.511639  	33.000000	0.501518  	33.000000	0.489212  	33.000000	0.49021   	33.000000	0.489273  	33.000000	0.501297  	33.000000	0.000220314	
35.000000	0.487986  	35.000000	0.478513  	35.000000	0.467199  	35.000000	0.467974  	35.000000	0.467257  	35.000000	0.478304  	35.000000	0.000208902	
38.000000	0.456822  	38.000000	0.448161  	38.000000	0.438133  	38.000000	0.438625  	38.000000	0.438173  	38.000000	0.447967  	38.000000	0.000193926	
41.000000	0.429883  	41.000000	0.42189   	41.000000	0.412956  	41.000000	0.413204  	41.000000	0.412958  	41.000000	0.421709  	41.000000	0.000181035	
44.000000	0.406349  	44.000000	0.398919  	44.000000	0.390854  	44.000000	0.390958  	44.000000	0.390873  	44.000000	0.39875   	44.000000	0.000169816	
47.000000	0.385603  	47.000000	0.378658  	47.000000	0.371368  	47.000000	0.371317  	47.000000	0.371362  	47.000000	0.378498  	47.000000	0.00015996	
50.000000	0.367168  	50.000000	0.360648  	50.000000	0.354015  	50.000000	0.353841  	50.000000	0.353991  	50.000000	0.360496  	50.000000	0.00015123	
55.000000	0.340603  	55.000000	0.33469   	55.000000	0.328917  	55.000000	0.32862   	55.000000	0.328902  	55.000000	0.334551  	55.000000	0.000138696	
60.000000	0.318163  	60.000000	0.312767  	60.000000	0.307673  	60.000000	0.307284  	60.000000	0.307661  	60.000000	0.312639  	60.000000	0.000128154	
65.000000	0.298941  	65.000000	0.293996  	65.000000	0.28942   	65.000000	0.288986  	65.000000	0.289434  	65.000000	0.293877  	65.000000	0.000119158	
70.000000	0.282278  	70.000000	0.277737  	70.000000	0.273626  	70.000000	0.273112  	70.000000	0.273612  	70.000000	0.277625  	70.000000	0.000111389	
75.000000	0.267685  	75.000000	0.263511  	75.000000	0.259735  	75.000000	0.259204  	75.000000	0.259742  	75.000000	0.263406  	75.000000	0.000104607	
80.000000	0.254792  	80.000000	0.250955  	80.000000	0.247491  	80.000000	0.246912  	80.000000	0.247481  	80.000000	0.250857  	80.000000	9.86346e-05	
85.000000	0.243313  	85.000000	0.23979   	85.000000	0.236553  	85.000000	0.235967  	85.000000	0.236558  	85.000000	0.239697  	85.000000	9.33323e-05	
90.000000	0.233021  	90.000000	0.229793  	90.000000	0.226781  	90.000000	0.226157  	90.000000	0.226764  	90.000000	0.229705  	90.000000	8.85921e-05	
95.000000	0.223739  	95.000000	0.22079   	95.000000	0.217936  	95.000000	0.217311  	95.000000	0.217931  	95.000000	0.220705  	95.000000	8.43281e-05	
100.000000	0.21532   	100.000000	0.212636  	100.000000	0.209919  	100.000000	0.209293  	100.000000	0.209922  	100.000000	0.212556  	100.000000	8.04711e-05	
105.000000	0.207647  	105.000000	0.205217  	105.000000	0.202615  	105.000000	0.201991  	105.000000	0.202626  	105.000000	0.20514   	105.000000	7.69647e-05	
110.000000	0.200624  	110.000000	0.198436  	110.000000	0.195958  	110.000000	0.195311  	110.000000	0.195951  	110.000000	0.198362  	110.000000	7.37626e-05	
115.000000	0.194168  	115.000000	0.192214  	115.000000	0.189832  	115.000000	0.189178  	115.000000	0.18982   	115.000000	0.192143  	115.000000	7.08263e-05	
120.000000	0.188213  	120.000000	0.186484  	120.000000	0.184174  	120.000000	0.183525  	120.000000	0.184169  	120.000000	0.186416  	120.000000	6.81237e-05	
125.000000	0.1827    	125.000000	0.181189  	125.000000	0.178946  	125.000000	0.178298  	125.000000	0.178943  	125.000000	0.181124  	125.000000	6.56275e-05	
130.000000	0.177582  	130.000000	0.176281  	130.000000	0.174097  	130.000000	0.173451  	130.000000	0.174096  	130.000000	0.176218  	130.000000	6.33148e-05	
135.000000	0.172815  	135.000000	0.17172   	135.000000	0.169586  	135.000000	0.168943  	135.000000	0.169587  	135.000000	0.171658  	135.000000	6.11657e-05	
140.000000	0.168365  	140.000000	0.167468  	140.000000	0.165381  	140.000000	0.164739  	140.000000	0.165383  	140.000000	0.167409  	140.000000	5.91632e-05	
145.000000	0.164199  	145.000000	0.163496  	145.000000	0.16145   	145.000000	0.160811  	145.000000	0.161452  	145.000000	0.163439  	145.000000	5.72926e-05	
150.000000	0.160291  	150.000000	0.159777  	150.000000	0.157767  	150.000000	0.157131  	150.000000	0.157771  	150.000000	0.159721  	150.000000	5.55412e-05	
155.000000	0.154789  	155.000000	0.156287  	155.000000	0.15431   	155.000000	0.153676  	155.000000	0.154314  	155.000000	0.156233  	155.000000	5.38978e-05	
160.000000	0.151563  	160.000000	0.153005  	160.000000	0.151059  	160.000000	0.150427  	160.000000	0.151063  	160.000000	0.152953  	160.000000	5.23525e-05	
165.000000	0.148522  	165.000000	0.149914  	165.000000	0.147995  	165.000000	0.147366  	165.000000	0.147999  	165.000000	0.149863  	165.000000	5.08967e-05	
170.000000	0.145649  	170.000000	0.146996  	170.000000	0.145103  	170.000000	0.144477  	170.000000	0.145106  	170.000000	0.146947  	170.000000	4.95228e-05	
175.000000	0.14293   	175.000000	0.144239  	175.000000	0.142369  	175.000000	0.141745  	175.000000	0.142372  	175.000000	0.144191  	175.000000	4.82239e-05	
180.000000	0.140354  	180.000000	0.141629  	180.000000	0.13978   	180.000000	0.139158  	180.000000	0.139783  	180.000000	0.141582  	180.000000	4.6994e-05	
185.000000	0.137908  	185.000000	0.139154  	185.000000	0.137325  	185.000000	0.136706  	185.000000	0.137327  	185.000000	0.139108  	185.000000	4.58276e-05	
190.000000	0.135585  	190.000000	0.136804  	190.000000	0.134994  	190.000000	0.134377  	190.000000	0.134996  	190.000000	0.136759  	190.000000	4.472e-05 	
195.000000	0.133373  	195.000000	0.13457   	195.000000	0.132777  	195.000000	0.132163  	195.000000	0.132779  	195.000000	0.134527  	195.000000	4.36666e-05	
200.000000	0.131266  	200.000000	0.132444  	200.000000	0.130668  	200.000000	0.130056  	200.000000	0.130669  	200.000000	0.132401  	200.000000	4.26637e-05	
210.000000	0.127336  	210.000000	0.128485  	210.000000	0.126739  	210.000000	0.126132  	210.000000	0.126739  	210.000000	0.128444  	210.000000	4.07948e-05	
220.000000	0.123744  	220.000000	0.124873  	220.000000	0.123155  	220.000000	0.122553  	220.000000	0.123154  	220.000000	0.124834  	220.000000	3.90887e-05	
230.000000	0.120448  	230.000000	0.121566  	230.000000	0.119874  	230.000000	0.119276  	230.000000	0.119871  	230.000000	0.121529  	230.000000	3.75246e-05	
240.000000	0.117413  	240.000000	0.118526  	240.000000	0.116858  	240.000000	0.116264  	240.000000	0.116854  	240.000000	0.11849   	240.000000	3.60853e-05	
250.000000	0.114608  	250.000000	0.115723  	250.000000	0.114079  	250.000000	0.113487  	250.000000	0.114072  	250.000000	0.115688  	250.000000	3.47563e-05	
260.000000	0.112009  	260.000000	0.11313   	260.000000	0.111501  	260.000000	0.11092   	260.000000	0.111499  	260.000000	0.113096  	260.000000	3.35252e-05	
270.000000	0.109593  	270.000000	0.110724  	270.000000	0.109106  	270.000000	0.108539  	270.000000	0.109113  	270.000000	0.110691  	270.000000	3.23815e-05	
280.000000	0.107342  	280.000000	0.108486  	280.000000	0.10689   	280.000000	0.106325  	280.000000	0.106895  	280.000000	0.108455  	280.000000	3.1316e-05	
290.000000	0.10524   	290.000000	0.106399  	290.000000	0.104825  	290.000000	0.104262  	290.000000	0.104827  	290.000000	0.106369  	290.000000	3.03209e-05	
300.000000	0.103271  	300.000000	0.10445   	300.000000	0.102894  	300.000000	0.102335  	300.000000	0.102896  	300.000000	0.10442   	300.000000	2.93894e-05	
310.000000	0.101425  	310.000000	0.102624  	310.000000	0.101088  	310.000000	0.100532  	310.000000	0.101088  	310.000000	0.102595  	310.000000	2.85154e-05	
320.000000	0.0996896 	320.000000	0.10091   	320.000000	0.0993941 	320.000000	0.0988407 	320.000000	0.0993926 	320.000000	0.100883  	320.000000	2.76938e-05	
330.000000	0.0980555 	330.000000	0.0992995 	330.000000	0.0978021 	330.000000	0.0972519 	330.000000	0.0977997 	330.000000	0.0992726 	330.000000	2.692e-05 	
340.000000	0.0965143 	340.000000	0.0977828 	340.000000	0.0963047 	340.000000	0.0957567 	340.000000	0.0963008 	340.000000	0.0977566 	340.000000	2.61897e-05	
350.000000	0.0950584 	350.000000	0.0963522 	350.000000	0.0948939 	350.000000	0.0943474 	350.000000	0.0948876 	350.000000	0.0963267 	350.000000	2.54995e-05	
360.000000	0.0936809 	360.000000	0.0950008 	360.000000	0.0935572 	360.000000	0.093017  	360.000000	0.0935537 	360.000000	0.0949759 	360.000000	2.4846e-05	
370.000000	0.0923759 	370.000000	0.0937223 	370.000000	0.0922899 	370.000000	0.0917593 	370.000000	0.0922927 	370.000000	0.0936981 	370.000000	2.42263e-05	
380.000000	0.0911379 	380.000000	0.0925113 	380.000000	0.0910946 	380.000000	0.0905688 	380.000000	0.0910987 	380.000000	0.0924877 	380.000000	2.3638e-05	
390.000000	0.089962  	390.000000	0.0913626 	390.000000	0.0899652 	390.000000	0.0894404 	390.000000	0.0899671 	390.000000	0.0913395 	390.000000	2.30785e-05	
400.000000	0.0888437 	400.000000	0.0902717 	400.000000	0.088893  	400.000000	0.0883697 	400.000000	0.0888934 	400.000000	0.0902492 	400.000000	2.25459e-05	
410.000000	0.087779  	410.000000	0.0892346 	410.000000	0.0878734 	410.000000	0.0873524 	410.000000	0.087873  	410.000000	0.0892126 	410.000000	2.20382e-05	
