Energy (MeV/u)1	0 - [He-base] F.Hubert et al, AD&ND Tables 46(1990)1	Energy (MeV/u)2	1 - [H -base] J.F.Ziegler et al,Pergamon Press,NY(low energy)	Energy (MeV/u)3	2 - ATIMA 1.2 LS-theory (recommended for high energy)	Energy (MeV/u)4	3 - ATIMA 1.2 without LS-correction	Energy (MeV/u)5	4 - ATIMA 1.4 H.Weick, improved mean charge formula for HI	Energy (MeV/u)6	5 - electrical component of [1] - J.F.Ziegler et al	Energy (MeV/u)7	6 - nuclear component of [1] - J.F.Ziegler et al	
0.001000	1.7879    	0.001000	2.25447   	0.001000	2.29063   	0.001000	2.29063   	0.001000	2.2907    	0.001000	1.19397   	0.001000	1.06051   	
0.002000	1.95347   	0.002000	2.35037   	0.002000	2.42448   	0.002000	2.42448   	0.002000	2.42452   	0.002000	1.54838   	0.002000	0.801987  	
0.005000	2.36616   	0.005000	2.67466   	0.005000	2.83967   	0.005000	2.83967   	0.005000	2.83969   	0.005000	2.18326   	0.005000	0.491397  	
0.008000	2.69336   	0.008000	2.97054   	0.008000	3.20996   	0.008000	3.20996   	0.008000	3.20998   	0.008000	2.60406   	0.008000	0.366483  	
0.010000	2.88085   	0.010000	3.14763   	0.010000	3.43147   	0.010000	3.43147   	0.010000	3.43149   	0.010000	2.83134   	0.010000	0.316289  	
0.015000	3.35631   	0.015000	3.56834   	0.015000	3.88775   	0.015000	3.88775   	0.015000	3.88776   	0.015000	3.3301    	0.015000	0.238236  	
0.020000	3.73619   	0.020000	3.93947   	0.020000	4.31316   	0.020000	4.31316   	0.020000	4.31317   	0.020000	3.74646   	0.020000	0.193012  	
0.025000	4.15539   	0.025000	4.36713   	0.025000	4.72901   	0.025000	4.72901   	0.025000	4.72902   	0.025000	4.20323   	0.025000	0.163897  	
0.030000	4.51069   	0.030000	4.77221   	0.030000	5.17071   	0.030000	5.17071   	0.030000	5.17072   	0.030000	4.62917   	0.030000	0.14304   	
0.035000	4.80279   	0.035000	5.1551    	0.035000	5.59137   	0.035000	5.59137   	0.035000	5.59138   	0.035000	5.02782   	0.035000	0.127287  	
0.040000	5.033     	0.040000	5.51601   	0.040000	5.99089   	0.040000	5.99089   	0.040000	5.9909    	0.040000	5.40109   	0.040000	0.114924  	
0.045000	5.20377   	0.045000	5.85511   	0.045000	6.36933   	0.045000	6.36933   	0.045000	6.36934   	0.045000	5.75017   	0.045000	0.104937  	
0.050000	5.31857   	0.050000	6.17254   	0.050000	6.72682   	0.050000	6.72682   	0.050000	6.72683   	0.050000	6.07586   	0.050000	0.0966829 	
0.055000	5.55018   	0.055000	6.52055   	0.055000	7.06362   	0.055000	7.06362   	0.055000	7.06363   	0.055000	6.43081   	0.055000	0.0897354 	
0.060000	5.74746   	0.060000	6.85176   	0.060000	7.38007   	0.060000	7.38007   	0.060000	7.38008   	0.060000	6.76796   	0.060000	0.0837989 	
0.070000	6.04882   	0.070000	7.46349   	0.070000	7.95371   	0.070000	7.95371   	0.070000	7.95371   	0.070000	7.38932   	0.070000	0.0741682 	
0.080000	6.37217   	0.080000	7.99986   	0.080000	8.45209   	0.080000	8.45209   	0.080000	8.4521    	0.080000	7.93319   	0.080000	0.0666713 	
0.090000	6.62619   	0.090000	8.47556   	0.090000	8.88053   	0.090000	8.88053   	0.090000	8.88054   	0.090000	8.41491   	0.090000	0.0606543 	
0.100000	6.82993   	0.100000	8.90006   	0.100000	9.24489   	0.100000	9.24489   	0.100000	9.2449    	0.100000	8.84435   	0.100000	0.0557088 	
0.120000	6.95369   	0.120000	9.59027   	0.120000	9.80586   	0.120000	9.80586   	0.120000	9.80587   	0.120000	9.54223   	0.120000	0.0480388 	
0.140000	7.00287   	0.140000	10.0783   	0.140000	10.1827   	0.140000	10.1827   	0.140000	10.1827   	0.140000	10.036    	0.140000	0.0423465 	
0.160000	7.02029   	0.160000	10.3929   	0.160000	10.4182   	0.160000	10.4182   	0.160000	10.4183   	0.160000	10.355    	0.160000	0.0379402 	
0.180000	7.01882   	0.180000	10.5472   	0.180000	10.548    	0.180000	10.548    	0.180000	10.548    	0.180000	10.5128   	0.180000	0.0344201 	
0.200000	7.03417   	0.200000	10.6214   	0.200000	10.6004   	0.200000	10.6004   	0.200000	10.6004   	0.200000	10.5898   	0.200000	0.031538  	
0.250000	6.9058    	0.250000	10.5335   	0.250000	10.5236   	0.250000	10.5236   	0.250000	10.5236   	0.250000	10.5073   	0.250000	0.0261791 	
0.300000	6.93417   	0.300000	10.4597   	0.300000	10.3024   	0.300000	10.3024   	0.300000	10.3024   	0.300000	10.4373   	0.300000	0.0224619 	
0.350000	6.98614   	0.350000	10.3653   	0.350000	10.036    	0.350000	10.036    	0.350000	10.036    	0.350000	10.3456   	0.350000	0.0197212 	
0.400000	6.97394   	0.400000	10.179    	0.400000	9.78203   	0.400000	9.78203   	0.400000	9.78203   	0.400000	10.1614   	0.400000	0.0176108 	
0.450000	6.93545   	0.450000	9.98366   	0.450000	9.60288   	0.450000	9.60288   	0.450000	9.60289   	0.450000	9.96772   	0.450000	0.0159323 	
0.500000	6.91602   	0.500000	9.85065   	0.500000	9.41557   	0.500000	9.41557   	0.500000	9.41558   	0.500000	9.83609   	0.500000	0.014563  	
0.600000	6.6087    	0.600000	9.38091   	0.600000	9.04508   	0.600000	9.04508   	0.600000	9.04509   	0.600000	9.36845   	0.600000	0.0124588 	
0.700000	6.26348   	0.700000	8.95696   	0.700000	8.67391   	0.700000	8.67391   	0.700000	8.67391   	0.700000	8.94605   	0.700000	0.010913  	
0.800000	6.13024   	0.800000	8.56281   	0.800000	8.33092   	0.800000	8.33092   	0.800000	8.33092   	0.800000	8.55308   	0.800000	0.00972633	
0.900000	5.98304   	0.900000	8.19859   	0.900000	8.01791   	0.900000	8.01791   	0.900000	8.01792   	0.900000	8.18981   	0.900000	0.00878472	
1.000000	5.82829   	1.000000	7.85851   	1.000000	7.72985   	1.000000	7.72985   	1.000000	7.72985   	1.000000	7.85049   	1.000000	0.00801823	
1.250000	5.38646   	1.250000	7.23978   	1.250000	7.08585   	1.250000	7.08585   	1.250000	7.08585   	1.250000	7.23318   	1.250000	0.00660433	
1.500000	4.93154   	1.500000	6.64355   	1.500000	6.52176   	1.500000	6.52176   	1.500000	6.52177   	1.500000	6.63792   	1.500000	0.0056328 	
1.750000	4.54334   	1.750000	6.1533    	1.750000	6.05212   	1.750000	6.05212   	1.750000	6.05213   	1.750000	6.14837   	1.750000	0.00492174	
2.000000	4.18214   	2.000000	5.70173   	2.000000	5.65014   	2.000000	5.65014   	2.000000	5.65014   	2.000000	5.69735   	2.000000	0.00437748	
2.250000	3.8817    	2.250000	5.28725   	2.250000	5.30022   	2.250000	5.30022   	2.250000	5.30023   	2.250000	5.28331   	2.250000	0.00394673	
2.500000	3.61506   	2.500000	4.93959   	2.500000	4.9921    	2.500000	4.9921    	2.500000	4.9921    	2.500000	4.936     	2.500000	0.00359685	
3.000000	3.22152   	3.000000	4.38159   	3.000000	4.47363   	3.000000	4.47363   	3.000000	4.47363   	3.000000	4.37853   	3.000000	0.00306197	
3.500000	2.90887   	3.500000	3.94546   	3.500000	4.05414   	3.500000	4.05414   	3.500000	4.05414   	3.500000	3.94279   	3.500000	0.00267136	
4.000000	2.65443   	4.000000	3.59377   	4.000000	3.70787   	4.000000	3.70787   	4.000000	3.70788   	4.000000	3.5914    	4.000000	0.00237292	
4.500000	2.44324   	4.500000	3.30297   	4.500000	3.41733   	4.500000	3.41733   	4.500000	3.41733   	4.500000	3.30083   	4.500000	0.00213708	
5.000000	2.26502   	5.000000	3.05752   	5.000000	3.17013   	5.000000	3.17013   	5.000000	3.17014   	5.000000	3.05557   	5.000000	0.00194577	
5.500000	2.11254   	5.500000	2.85019   	5.500000	2.95729   	5.500000	2.95729   	5.500000	2.95729   	5.500000	2.84841   	5.500000	0.0017873 	
6.000000	1.98053   	6.000000	2.67028   	6.000000	2.77211   	6.000000	2.77211   	6.000000	2.77211   	6.000000	2.66862   	6.000000	0.00165378	
6.500000	1.86508   	6.500000	2.51255   	6.500000	2.60952   	6.500000	2.60952   	6.500000	2.60953   	6.500000	2.51101   	6.500000	0.00153965	
7.000000	1.76322   	7.000000	2.37306   	7.000000	2.46562   	7.000000	2.46562   	7.000000	2.46562   	7.000000	2.37162   	7.000000	0.00144093	
7.500000	1.67266   	7.500000	2.24878   	7.500000	2.33734   	7.500000	2.33734   	7.500000	2.33734   	7.500000	2.24742   	7.500000	0.00135464	
8.000000	1.59158   	8.000000	2.13732   	8.000000	2.22225   	8.000000	2.22225   	8.000000	2.22225   	8.000000	2.13604   	8.000000	0.00127855	
8.500000	1.51855   	8.500000	2.03677   	8.500000	2.11841   	8.500000	2.11841   	8.500000	2.11841   	8.500000	2.03556   	8.500000	0.00121092	
9.000000	1.45241   	9.000000	1.94559   	9.000000	2.02423   	9.000000	2.02423   	9.000000	2.02423   	9.000000	1.94444   	9.000000	0.0011504 	
9.500000	1.39222   	9.500000	1.86253   	9.500000	1.93841   	9.500000	1.93841   	9.500000	1.93841   	9.500000	1.86143   	9.500000	0.0010959 	
10.000000	1.33719   	10.000000	1.8115    	10.000000	1.85988   	10.000000	1.85988   	10.000000	1.85988   	10.000000	1.81045   	10.000000	0.00104656	
11.000000	1.24016   	11.000000	1.68321   	11.000000	1.71923   	11.000000	1.72033   	11.000000	1.71924   	11.000000	1.68225   	11.000000	0.000960627	
12.000000	1.15727   	12.000000	1.57274   	12.000000	1.59925   	12.000000	1.60106   	12.000000	1.5991    	12.000000	1.57186   	12.000000	0.000888282	
13.000000	1.0856    	13.000000	1.47665   	13.000000	1.49571   	13.000000	1.49799   	13.000000	1.49533   	13.000000	1.47582   	13.000000	0.000826497	
14.000000	1.02299   	14.000000	1.39228   	14.000000	1.40548   	14.000000	1.40806   	14.000000	1.40486   	14.000000	1.39151   	14.000000	0.000773087	
15.000000	0.967789  	15.000000	1.31763   	15.000000	1.32616   	15.000000	1.32894   	15.000000	1.32531   	15.000000	1.31691   	15.000000	0.000726437	
16.000000	0.918748  	16.000000	1.25111   	16.000000	1.25595   	16.000000	1.25881   	16.000000	1.25486   	16.000000	1.25042   	16.000000	0.000685322	
17.000000	0.874874  	17.000000	1.19144   	17.000000	1.19338   	17.000000	1.19626   	17.000000	1.19205   	17.000000	1.19079   	17.000000	0.000648799	
18.000000	0.835377  	18.000000	1.13762   	18.000000	1.13727   	18.000000	1.14012   	18.000000	1.13573   	18.000000	1.137     	18.000000	0.00061613	
19.000000	0.799626  	19.000000	1.08882   	19.000000	1.08666   	19.000000	1.0895    	19.000000	1.08497   	19.000000	1.08823   	19.000000	0.000586727	
20.000000	0.767103  	20.000000	1.04437   	20.000000	1.04086   	20.000000	1.04363   	20.000000	1.03902   	20.000000	1.04381   	20.000000	0.000560116	
21.000000	0.737382  	21.000000	1.0037    	21.000000	0.999228  	21.000000	1.00189   	21.000000	0.997212  	21.000000	1.00316   	21.000000	0.000535913	
22.000000	0.710112  	22.000000	0.966356  	22.000000	0.961214  	22.000000	0.96377   	22.000000	0.959059  	22.000000	0.965842  	22.000000	0.000513801	
23.000000	0.684997  	23.000000	0.931936  	23.000000	0.926375  	23.000000	0.928828  	23.000000	0.924104  	23.000000	0.931443  	23.000000	0.000493516	
24.000000	0.661786  	24.000000	0.900109  	24.000000	0.894343  	24.000000	0.896701  	24.000000	0.891982  	24.000000	0.899634  	24.000000	0.000474838	
25.000000	0.640267  	25.000000	0.870588  	25.000000	0.864811  	25.000000	0.867076  	25.000000	0.862376  	25.000000	0.87013   	25.000000	0.00045758	
27.000000	0.601606  	27.000000	0.817523  	27.000000	0.812244  	27.000000	0.814298  	27.000000	0.809666  	27.000000	0.817097  	27.000000	0.000426715	
29.000000	0.567839  	29.000000	0.771156  	29.000000	0.766968  	29.000000	0.768763  	29.000000	0.764227  	29.000000	0.770756  	29.000000	0.000399905	
31.000000	0.538078  	31.000000	0.730281  	31.000000	0.726995  	31.000000	0.728466  	31.000000	0.724255  	31.000000	0.729905  	31.000000	0.000376391	
33.000000	0.511639  	33.000000	0.693968  	33.000000	0.690985  	33.000000	0.692157  	33.000000	0.688423  	33.000000	0.693613  	33.000000	0.000355593	
35.000000	0.487986  	35.000000	0.661485  	35.000000	0.658787  	35.000000	0.659697  	35.000000	0.656368  	35.000000	0.661148  	35.000000	0.000337061	
38.000000	0.456822  	38.000000	0.6187    	38.000000	0.616387  	38.000000	0.616964  	38.000000	0.614136  	38.000000	0.618388  	38.000000	0.000312751	
41.000000	0.429883  	41.000000	0.581733  	41.000000	0.579765  	41.000000	0.580055  	41.000000	0.57763   	41.000000	0.581441  	41.000000	0.000291837	
44.000000	0.406349  	44.000000	0.549459  	44.000000	0.547718  	44.000000	0.54784   	44.000000	0.545743  	44.000000	0.549186  	44.000000	0.000273644	
47.000000	0.385603  	47.000000	0.521029  	47.000000	0.519522  	47.000000	0.519462  	47.000000	0.517639  	47.000000	0.520772  	47.000000	0.000257669	
50.000000	0.367168  	50.000000	0.495787  	50.000000	0.494471  	50.000000	0.494267  	50.000000	0.492673  	50.000000	0.495544  	50.000000	0.000243525	
55.000000	0.340603  	55.000000	0.459454  	55.000000	0.458343  	55.000000	0.457995  	55.000000	0.456709  	55.000000	0.459231  	55.000000	0.000223228	
60.000000	0.318163  	60.000000	0.428812  	60.000000	0.427855  	60.000000	0.427398  	60.000000	0.426349  	60.000000	0.428605  	60.000000	0.000206167	
65.000000	0.298941  	65.000000	0.402606  	65.000000	0.401732  	65.000000	0.401224  	65.000000	0.400364  	65.000000	0.402415  	65.000000	0.000191617	
70.000000	0.282278  	70.000000	0.37993   	70.000000	0.37917   	70.000000	0.378567  	70.000000	0.377859  	70.000000	0.379751  	70.000000	0.000179055	
75.000000	0.267685  	75.000000	0.360107  	75.000000	0.359378  	75.000000	0.358755  	75.000000	0.358172  	75.000000	0.359939  	75.000000	0.000168096	
80.000000	0.254792  	80.000000	0.342625  	80.000000	0.341958  	80.000000	0.341278  	80.000000	0.340798  	80.000000	0.342467  	80.000000	0.000158447	
85.000000	0.243313  	85.000000	0.327089  	85.000000	0.32643   	85.000000	0.325742  	85.000000	0.325349  	85.000000	0.326939  	85.000000	0.000149885	
90.000000	0.233021  	90.000000	0.313188  	90.000000	0.31257   	90.000000	0.311838  	90.000000	0.311516  	90.000000	0.313045  	90.000000	0.000142233	
95.000000	0.223739  	95.000000	0.300673  	95.000000	0.300051  	95.000000	0.299318  	95.000000	0.299059  	95.000000	0.300538  	95.000000	0.000135352	
100.000000	0.21532   	100.000000	0.289346  	100.000000	0.288718  	100.000000	0.287984  	100.000000	0.287779  	100.000000	0.289217  	100.000000	0.00012913	
105.000000	0.207647  	105.000000	0.279044  	105.000000	0.278406  	105.000000	0.277673  	105.000000	0.277515  	105.000000	0.27892   	105.000000	0.000123474	
110.000000	0.200624  	110.000000	0.269631  	110.000000	0.269012  	110.000000	0.268252  	110.000000	0.268135  	110.000000	0.269513  	110.000000	0.000118311	
115.000000	0.194168  	115.000000	0.260998  	115.000000	0.260378  	115.000000	0.25961   	115.000000	0.259528  	115.000000	0.260884  	115.000000	0.000113578	
120.000000	0.188213  	120.000000	0.253049  	120.000000	0.252415  	120.000000	0.251653  	120.000000	0.251603  	120.000000	0.25294   	120.000000	0.000109223	
125.000000	0.1827    	125.000000	0.245707  	125.000000	0.245063  	125.000000	0.244302  	125.000000	0.24428   	125.000000	0.245602  	125.000000	0.000105201	
130.000000	0.177582  	130.000000	0.238903  	130.000000	0.238249  	130.000000	0.237491  	130.000000	0.237494  	130.000000	0.238802  	130.000000	0.000101475	
135.000000	0.172815  	135.000000	0.232581  	135.000000	0.231916  	135.000000	0.231161  	135.000000	0.231186  	135.000000	0.232483  	135.000000	9.80143e-05	
140.000000	0.168365  	140.000000	0.22669   	140.000000	0.226016  	140.000000	0.225263  	140.000000	0.225309  	140.000000	0.226595  	140.000000	9.47899e-05	
145.000000	0.164199  	145.000000	0.221187  	145.000000	0.220504  	145.000000	0.219755  	145.000000	0.219818  	145.000000	0.221095  	145.000000	9.17785e-05	
150.000000	0.160291  	150.000000	0.216036  	150.000000	0.215345  	150.000000	0.214598  	150.000000	0.214678  	150.000000	0.215947  	150.000000	8.89594e-05	
155.000000	0.154789  	155.000000	0.211203  	155.000000	0.210504  	155.000000	0.20976   	155.000000	0.209855  	155.000000	0.211116  	155.000000	8.63146e-05	
160.000000	0.151563  	160.000000	0.206659  	160.000000	0.205954  	160.000000	0.205213  	160.000000	0.205321  	160.000000	0.206575  	160.000000	8.38282e-05	
165.000000	0.148522  	165.000000	0.20238   	165.000000	0.201668  	165.000000	0.200931  	165.000000	0.201051  	165.000000	0.202298  	165.000000	8.14862e-05	
170.000000	0.145649  	170.000000	0.198342  	170.000000	0.197626  	170.000000	0.196891  	170.000000	0.197022  	170.000000	0.198263  	170.000000	7.92761e-05	
175.000000	0.14293   	175.000000	0.194526  	175.000000	0.193805  	175.000000	0.193073  	175.000000	0.193215  	175.000000	0.194449  	175.000000	7.71872e-05	
180.000000	0.140354  	180.000000	0.190914  	180.000000	0.190189  	180.000000	0.18946   	180.000000	0.189612  	180.000000	0.190839  	180.000000	7.52094e-05	
185.000000	0.137908  	185.000000	0.18749   	185.000000	0.186762  	185.000000	0.186036  	185.000000	0.186196  	185.000000	0.187417  	185.000000	7.33342e-05	
190.000000	0.135585  	190.000000	0.18424   	190.000000	0.183509  	190.000000	0.182786  	190.000000	0.182954  	190.000000	0.184169  	190.000000	7.15535e-05	
195.000000	0.133373  	195.000000	0.181151  	195.000000	0.180418  	195.000000	0.179697  	195.000000	0.179873  	195.000000	0.181081  	195.000000	6.98604e-05	
200.000000	0.131266  	200.000000	0.17821   	200.000000	0.177476  	200.000000	0.176758  	200.000000	0.17694   	200.000000	0.178142  	200.000000	6.82484e-05	
210.000000	0.127336  	210.000000	0.172735  	210.000000	0.172     	210.000000	0.171288  	210.000000	0.171483  	210.000000	0.17267   	210.000000	6.52454e-05	
220.000000	0.123744  	220.000000	0.167743  	220.000000	0.167009  	220.000000	0.166302  	220.000000	0.166507  	220.000000	0.16768   	220.000000	6.25045e-05	
230.000000	0.120448  	230.000000	0.163171  	230.000000	0.162441  	230.000000	0.161739  	230.000000	0.161953  	230.000000	0.163111  	230.000000	5.99923e-05	
240.000000	0.117413  	240.000000	0.15897   	240.000000	0.158244  	240.000000	0.157548  	240.000000	0.15777   	240.000000	0.158913  	240.000000	5.76811e-05	
250.000000	0.114608  	250.000000	0.155097  	250.000000	0.15438   	250.000000	0.153685  	250.000000	0.153915  	250.000000	0.155041  	250.000000	5.55474e-05	
260.000000	0.112009  	260.000000	0.151514  	260.000000	0.150797  	260.000000	0.150115  	260.000000	0.15035   	260.000000	0.15146   	260.000000	5.35713e-05	
270.000000	0.109593  	270.000000	0.14819   	270.000000	0.147471  	270.000000	0.146805  	270.000000	0.147046  	270.000000	0.148138  	270.000000	5.17358e-05	
280.000000	0.107342  	280.000000	0.145099  	280.000000	0.144392  	280.000000	0.143729  	280.000000	0.143974  	280.000000	0.145049  	280.000000	5.00261e-05	
290.000000	0.10524   	290.000000	0.142217  	290.000000	0.141522  	290.000000	0.140862  	290.000000	0.141113  	290.000000	0.142169  	290.000000	4.84297e-05	
300.000000	0.103271  	300.000000	0.139525  	300.000000	0.138842  	300.000000	0.138186  	300.000000	0.13844   	300.000000	0.139478  	300.000000	4.69355e-05	
310.000000	0.101425  	310.000000	0.137003  	310.000000	0.136334  	310.000000	0.135681  	310.000000	0.135938  	310.000000	0.136958  	310.000000	4.55338e-05	
320.000000	0.0996896 	320.000000	0.134637  	320.000000	0.133982  	320.000000	0.133332  	320.000000	0.133593  	320.000000	0.134593  	320.000000	4.42164e-05	
330.000000	0.0980555 	330.000000	0.132414  	330.000000	0.131772  	330.000000	0.131126  	330.000000	0.131389  	330.000000	0.132371  	330.000000	4.29756e-05	
340.000000	0.0965143 	340.000000	0.13032   	340.000000	0.129693  	340.000000	0.12905   	340.000000	0.129316  	340.000000	0.130278  	340.000000	4.18049e-05	
350.000000	0.0950584 	350.000000	0.128345  	350.000000	0.127735  	350.000000	0.127093  	350.000000	0.127361  	350.000000	0.128304  	350.000000	4.06985e-05	
360.000000	0.0936809 	360.000000	0.12648   	360.000000	0.12588   	360.000000	0.125246  	360.000000	0.125516  	360.000000	0.12644   	360.000000	3.96512e-05	
370.000000	0.0923759 	370.000000	0.124715  	370.000000	0.124112  	370.000000	0.12349   	370.000000	0.123762  	370.000000	0.124676  	370.000000	3.86582e-05	
380.000000	0.0911379 	380.000000	0.123044  	380.000000	0.122444  	380.000000	0.121827  	380.000000	0.1221    	380.000000	0.123006  	380.000000	3.77155e-05	
390.000000	0.089962  	390.000000	0.121458  	390.000000	0.120866  	390.000000	0.12025   	390.000000	0.120525  	390.000000	0.121421  	390.000000	3.68192e-05	
400.000000	0.0888437 	400.000000	0.119953  	400.000000	0.119368  	400.000000	0.118754  	400.000000	0.119031  	400.000000	0.119917  	400.000000	3.5966e-05	
410.000000	0.087779  	410.000000	0.118522  	410.000000	0.117944  	410.000000	0.117333  	410.000000	0.11761   	410.000000	0.118487  	410.000000	3.51528e-05	
