Energy (MeV/u)1	0 - [He-base] F.Hubert et al, AD&ND Tables 46(1990)1	Energy (MeV/u)2	1 - [H -base] J.F.Ziegler et al,Pergamon Press,NY(low energy)	Energy (MeV/u)3	2 - ATIMA 1.2 LS-theory (recommended for high energy)	Energy (MeV/u)4	3 - ATIMA 1.2 without LS-correction	Energy (MeV/u)5	4 - ATIMA 1.4 H.Weick, improved mean charge formula for HI	Energy (MeV/u)6	5 - electrical component of [1] - J.F.Ziegler et al	Energy (MeV/u)7	6 - nuclear component of [1] - J.F.Ziegler et al	
0.001000	0.206423  	0.001000	0.233549  	0.001000	0.295777  	0.001000	0.295777  	0.001000	0.295698  	0.001000	0.205826  	0.001000	0.0277224 	
0.002000	0.24593   	0.002000	0.281344  	0.002000	0.337778  	0.002000	0.337778  	0.002000	0.337735  	0.002000	0.262338  	0.002000	0.0190059 	
0.005000	0.32298   	0.005000	0.372082  	0.005000	0.41139   	0.005000	0.41139   	0.005000	0.411372  	0.005000	0.361527  	0.005000	0.0105555 	
0.008000	0.375814  	0.008000	0.433679  	0.008000	0.458322  	0.008000	0.458322  	0.008000	0.45831   	0.008000	0.42617   	0.008000	0.00750981	
0.010000	0.40462   	0.010000	0.467169  	0.010000	0.483057  	0.010000	0.483057  	0.010000	0.483048  	0.010000	0.460788  	0.010000	0.00638169	
0.015000	0.488016  	0.015000	0.531288  	0.015000	0.532235  	0.015000	0.532235  	0.015000	0.53223   	0.015000	0.526581  	0.015000	0.00470733	
0.020000	0.556346  	0.020000	0.581423  	0.020000	0.570637  	0.020000	0.570637  	0.020000	0.570633  	0.020000	0.577652  	0.020000	0.00377148	
0.025000	0.612858  	0.025000	0.62201   	0.025000	0.602554  	0.025000	0.602554  	0.025000	0.602551  	0.025000	0.618843  	0.025000	0.00316672	
0.030000	0.659287  	0.030000	0.655366  	0.030000	0.637134  	0.030000	0.637134  	0.030000	0.637131  	0.030000	0.652625  	0.030000	0.00274075	
0.035000	0.696776  	0.035000	0.682909  	0.035000	0.665965  	0.035000	0.665965  	0.035000	0.665963  	0.035000	0.680486  	0.035000	0.00242301	
0.040000	0.726226  	0.040000	0.705602  	0.040000	0.689969  	0.040000	0.689969  	0.040000	0.689967  	0.040000	0.703426  	0.040000	0.00217606	
0.045000	0.748445  	0.045000	0.72415   	0.045000	0.709821  	0.045000	0.709821  	0.045000	0.70982   	0.045000	0.722172  	0.045000	0.00197813	
0.050000	0.764212  	0.050000	0.739103  	0.050000	0.726051  	0.050000	0.726051  	0.050000	0.72605   	0.050000	0.737287  	0.050000	0.00181562	
0.055000	0.774294  	0.055000	0.750907  	0.055000	0.73909   	0.055000	0.73909   	0.055000	0.739088  	0.055000	0.749227  	0.055000	0.00167959	
0.060000	0.779447  	0.060000	0.759938  	0.060000	0.749303  	0.060000	0.749303  	0.060000	0.749301  	0.060000	0.758374  	0.060000	0.00156392	
0.070000	0.777842  	0.070000	0.77094   	0.070000	0.762482  	0.070000	0.762482  	0.070000	0.762481  	0.070000	0.769562  	0.070000	0.0013774 	
0.080000	0.764696  	0.080000	0.77427   	0.080000	0.767722  	0.080000	0.767722  	0.080000	0.767721  	0.080000	0.773037  	0.080000	0.00123319	
0.090000	0.744373  	0.090000	0.771658  	0.090000	0.76675   	0.090000	0.76675   	0.090000	0.76675   	0.090000	0.77054   	0.090000	0.00111809	
0.100000	0.720179  	0.100000	0.764509  	0.100000	0.760987  	0.100000	0.760987  	0.100000	0.760987  	0.100000	0.763485  	0.100000	0.00102394	
0.120000	0.668683  	0.120000	0.740965  	0.120000	0.739559  	0.120000	0.739559  	0.120000	0.739559  	0.120000	0.740086  	0.120000	0.000878734	
0.140000	0.620388  	0.140000	0.710415  	0.140000	0.710438  	0.140000	0.710438  	0.140000	0.710438  	0.140000	0.709643  	0.140000	0.000771647	
0.160000	0.578462  	0.160000	0.677154  	0.160000	0.678124  	0.160000	0.678124  	0.160000	0.678124  	0.160000	0.676465  	0.160000	0.000689174	
0.180000	0.543039  	0.180000	0.643762  	0.180000	0.645355  	0.180000	0.645355  	0.180000	0.645355  	0.180000	0.643138  	0.180000	0.000623561	
0.200000	0.513233  	0.200000	0.611681  	0.200000	0.613683  	0.200000	0.613683  	0.200000	0.613683  	0.200000	0.611111  	0.200000	0.000570031	
0.250000	0.45663   	0.250000	0.540926  	0.250000	0.543432  	0.250000	0.543432  	0.250000	0.543432  	0.250000	0.540455  	0.250000	0.000470979	
0.300000	0.416269  	0.300000	0.484348  	0.300000	0.487002  	0.300000	0.487002  	0.300000	0.487002  	0.300000	0.483946  	0.300000	0.000402664	
0.350000	0.385279  	0.350000	0.439543  	0.350000	0.442189  	0.350000	0.442189  	0.350000	0.442189  	0.350000	0.43919   	0.350000	0.000352519	
0.400000	0.360148  	0.400000	0.40363   	0.400000	0.406193  	0.400000	0.406193  	0.400000	0.406193  	0.400000	0.403316  	0.400000	0.000314047	
0.450000	0.338997  	0.450000	0.3743    	0.450000	0.376738  	0.450000	0.376738  	0.450000	0.376738  	0.450000	0.374017  	0.450000	0.000283538	
0.500000	0.320742  	0.500000	0.349874  	0.500000	0.352167  	0.500000	0.352167  	0.500000	0.352167  	0.500000	0.349615  	0.500000	0.000258715	
0.600000	0.290438  	0.600000	0.311312  	0.600000	0.313299  	0.600000	0.313299  	0.600000	0.313299  	0.600000	0.311092  	0.600000	0.000220687	
0.700000	0.266013  	0.700000	0.281952  	0.700000	0.283644  	0.700000	0.283644  	0.700000	0.283644  	0.700000	0.281759  	0.700000	0.000192849	
0.800000	0.245754  	0.800000	0.258601  	0.800000	0.260029  	0.800000	0.260029  	0.800000	0.260029  	0.800000	0.25843   	0.800000	0.00017154	
0.900000	0.228612  	0.900000	0.239432  	0.900000	0.240628  	0.900000	0.240628  	0.900000	0.240628  	0.900000	0.239277  	0.900000	0.000154672	
1.000000	0.213886  	1.000000	0.223317  	1.000000	0.224313  	1.000000	0.224313  	1.000000	0.224313  	1.000000	0.223176  	1.000000	0.00014097	
1.250000	0.184698  	1.250000	0.192118  	1.250000	0.192727  	1.250000	0.192727  	1.250000	0.192727  	1.250000	0.192002  	1.250000	0.000115767	
1.500000	0.162953  	1.500000	0.169331  	1.500000	0.16967   	1.500000	0.16967   	1.500000	0.16967   	1.500000	0.169233  	1.500000	9.85087e-05	
1.750000	0.146074  	1.750000	0.151817  	1.750000	0.151964  	1.750000	0.151964  	1.750000	0.151964  	1.750000	0.151731  	1.750000	8.59118e-05	
2.000000	0.13256   	2.000000	0.137867  	2.000000	0.137876  	2.000000	0.137876  	2.000000	0.137876  	2.000000	0.13779   	2.000000	7.62914e-05	
2.250000	0.121479  	2.250000	0.126458  	2.250000	0.126364  	2.250000	0.126364  	2.250000	0.126364  	2.250000	0.126389  	2.250000	6.86916e-05	
2.500000	0.11173   	2.500000	0.116933  	2.500000	0.116761  	2.500000	0.116761  	2.500000	0.116761  	2.500000	0.11687   	2.500000	6.25285e-05	
3.000000	0.0975606 	3.000000	0.101886  	3.000000	0.101609  	3.000000	0.101609  	3.000000	0.101609  	3.000000	0.101833  	3.000000	5.31253e-05	
3.500000	0.0868065 	3.500000	0.0904981 	3.500000	0.0901576 	3.500000	0.0901576 	3.500000	0.0901576 	3.500000	0.0904518 	3.500000	4.62738e-05	
4.000000	0.0783425 	4.000000	0.081551  	4.000000	0.0811714 	4.000000	0.0811714 	4.000000	0.0811714 	4.000000	0.08151   	4.000000	4.10489e-05	
4.500000	0.0714933 	4.500000	0.0743199 	4.500000	0.0739161 	4.500000	0.0739161 	4.500000	0.0739161 	4.500000	0.074283  	4.500000	3.69264e-05	
5.000000	0.0658281 	5.000000	0.0683439 	5.000000	0.0679256 	5.000000	0.0679256 	5.000000	0.0679256 	5.000000	0.0683103 	5.000000	3.35868e-05	
5.500000	0.0610583 	5.500000	0.0633156 	5.500000	0.062889  	5.500000	0.062889  	5.500000	0.062889  	5.500000	0.0632848 	5.500000	3.08238e-05	
6.000000	0.056983  	6.000000	0.0590213 	6.000000	0.0585908 	6.000000	0.0585908 	6.000000	0.0585908 	6.000000	0.0589928 	6.000000	2.84981e-05	
6.500000	0.0534578 	6.500000	0.0553078 	6.500000	0.0548763 	6.500000	0.0548763 	6.500000	0.0548764 	6.500000	0.0552813 	6.500000	2.65122e-05	
7.000000	0.0503763 	7.000000	0.0520622 	7.000000	0.0516319 	7.000000	0.0516319 	7.000000	0.0516319 	7.000000	0.0520374 	7.000000	2.47959e-05	
7.500000	0.0476579 	7.500000	0.0491995 	7.500000	0.0487717 	7.500000	0.0487717 	7.500000	0.0487717 	7.500000	0.0491762 	7.500000	2.32969e-05	
8.000000	0.0452408 	8.000000	0.0466543 	8.000000	0.0462299 	8.000000	0.0462299 	8.000000	0.04623   	8.000000	0.0466323 	8.000000	2.1976e-05	
8.500000	0.0430766 	8.500000	0.0443753 	8.500000	0.0439552 	8.500000	0.0439552 	8.500000	0.0439552 	8.500000	0.0443545 	8.500000	2.08028e-05	
9.000000	0.0411268 	9.000000	0.042322  	9.000000	0.0419065 	9.000000	0.0419065 	9.000000	0.0419065 	9.000000	0.0423023 	9.000000	1.97535e-05	
9.500000	0.0393604 	9.500000	0.0404617 	9.500000	0.0400512 	9.500000	0.0400512 	9.500000	0.0400512 	9.500000	0.0404429 	9.500000	1.88092e-05	
10.000000	0.0377522 	10.000000	0.0382632 	10.000000	0.0383626 	10.000000	0.0383626 	10.000000	0.0383626 	10.000000	0.0382452 	10.000000	1.79547e-05	
11.000000	0.0349308 	11.000000	0.0354677 	11.000000	0.0353763 	11.000000	0.0353766 	11.000000	0.0353751 	11.000000	0.0354513 	11.000000	1.64676e-05	
12.000000	0.0325348 	12.000000	0.0330797 	12.000000	0.0328525 	12.000000	0.0328531 	12.000000	0.0328517 	12.000000	0.0330645 	12.000000	1.52168e-05	
13.000000	0.030473  	13.000000	0.0310152 	13.000000	0.0306921 	13.000000	0.0306925 	13.000000	0.0306916 	13.000000	0.031001  	13.000000	1.41494e-05	
14.000000	0.0286789 	14.000000	0.0292117 	14.000000	0.0288221 	14.000000	0.0288221 	14.000000	0.0288217 	14.000000	0.0291985 	14.000000	1.32274e-05	
15.000000	0.0271027 	15.000000	0.0276222 	15.000000	0.0271874 	15.000000	0.0271875 	15.000000	0.0271875 	15.000000	0.0276098 	15.000000	1.24226e-05	
16.000000	0.0257062 	16.000000	0.0262103 	16.000000	0.0257474 	16.000000	0.0257471 	16.000000	0.0257474 	16.000000	0.0261985 	16.000000	1.17138e-05	
17.000000	0.0244599 	17.000000	0.0249472 	17.000000	0.02447   	17.000000	0.0244688 	17.000000	0.0244694 	17.000000	0.0249362 	17.000000	1.10845e-05	
18.000000	0.0233404 	18.000000	0.0238105 	18.000000	0.0233286 	18.000000	0.023327  	18.000000	0.0233279 	18.000000	0.0238    	18.000000	1.05219e-05	
19.000000	0.0223288 	19.000000	0.0227817 	19.000000	0.022303  	19.000000	0.0223014 	19.000000	0.0223026 	19.000000	0.0227717 	19.000000	1.00158e-05	
20.000000	0.0214101 	20.000000	0.021846  	20.000000	0.0213772 	20.000000	0.0213755 	20.000000	0.0213771 	20.000000	0.0218364 	20.000000	9.55797e-06	
21.000000	0.0205717 	21.000000	0.020991  	21.000000	0.0205378 	21.000000	0.020536  	21.000000	0.0205379 	21.000000	0.0209819 	21.000000	9.14175e-06	
22.000000	0.0198034 	22.000000	0.0202068 	22.000000	0.0197734 	22.000000	0.0197716 	22.000000	0.0197738 	22.000000	0.020198  	22.000000	8.76164e-06	
23.000000	0.0190966 	23.000000	0.0194846 	23.000000	0.0190749 	23.000000	0.0190731 	23.000000	0.0190756 	23.000000	0.0194762 	23.000000	8.41308e-06	
24.000000	0.018444  	24.000000	0.0188173 	24.000000	0.0184352 	24.000000	0.0184327 	24.000000	0.0184354 	24.000000	0.0188092 	24.000000	8.09225e-06	
25.000000	0.0178395 	25.000000	0.0181988 	25.000000	0.0178473 	25.000000	0.0178437 	25.000000	0.0178467 	25.000000	0.018191  	25.000000	7.79591e-06	
27.000000	0.0167548 	27.000000	0.0170879 	27.000000	0.016803  	27.000000	0.0167984 	27.000000	0.016802  	27.000000	0.0170807 	27.000000	7.26619e-06	
29.000000	0.0158086 	29.000000	0.0161181 	29.000000	0.0159055 	29.000000	0.015901  	29.000000	0.0159052 	29.000000	0.0161113 	29.000000	6.80636e-06	
31.000000	0.0149756 	31.000000	0.0152637 	31.000000	0.015098  	31.000000	0.0150935 	31.000000	0.0150979 	31.000000	0.0152573 	31.000000	6.40328e-06	
33.000000	0.0142362 	33.000000	0.014505  	33.000000	0.0143544 	33.000000	0.0143501 	33.000000	0.0143546 	33.000000	0.0144989 	33.000000	6.04694e-06	
35.000000	0.0135753 	35.000000	0.0138266 	35.000000	0.0136888 	35.000000	0.013685  	35.000000	0.0136895 	35.000000	0.0138209 	35.000000	5.72957e-06	
38.000000	0.0127051 	38.000000	0.0129333 	38.000000	0.0128135 	38.000000	0.0128084 	38.000000	0.012813  	38.000000	0.012928  	38.000000	5.31349e-06	
41.000000	0.0119535 	41.000000	0.0121618 	41.000000	0.0120557 	41.000000	0.0120505 	41.000000	0.012055  	41.000000	0.0121568 	41.000000	4.95575e-06	
44.000000	0.0112973 	44.000000	0.0114884 	44.000000	0.011393  	44.000000	0.0113882 	44.000000	0.0113927 	44.000000	0.0114837 	44.000000	4.64475e-06	
47.000000	0.0107192 	47.000000	0.0108952 	47.000000	0.0108089 	47.000000	0.0108043 	47.000000	0.0108088 	47.000000	0.0108909 	47.000000	4.37179e-06	
50.000000	0.0102057 	50.000000	0.0103687 	50.000000	0.0102897 	50.000000	0.0102855 	50.000000	0.0102899 	50.000000	0.0103645 	50.000000	4.13021e-06	
55.000000	0.00946597	55.000000	0.00961083	55.000000	0.00954174	55.000000	0.00953779	55.000000	0.0095421 	55.000000	0.00960705	55.000000	3.78377e-06	
60.000000	0.00884144	60.000000	0.00897175	60.000000	0.00891028	60.000000	0.00890638	60.000000	0.0089106 	60.000000	0.00896826	60.000000	3.49275e-06	
65.000000	0.00830663	65.000000	0.00842525	65.000000	0.00837033	65.000000	0.00836572	65.000000	0.00836985	65.000000	0.00842201	65.000000	3.24471e-06	
70.000000	0.00784316	70.000000	0.00795236	70.000000	0.00790153	70.000000	0.00789734	70.000000	0.00790138	70.000000	0.00794933	70.000000	3.03068e-06	
75.000000	0.00743736	75.000000	0.007539  	75.000000	0.00749142	75.000000	0.00748746	75.000000	0.00749142	75.000000	0.00753616	75.000000	2.84405e-06	
80.000000	0.00707889	80.000000	0.00717447	80.000000	0.00712939	80.000000	0.00712565	80.000000	0.00712953	80.000000	0.00717179	80.000000	2.67981e-06	
85.000000	0.00675975	85.000000	0.00685051	85.000000	0.00680736	85.000000	0.00680382	85.000000	0.00680763	85.000000	0.00684798	85.000000	2.53412e-06	
90.000000	0.00647368	90.000000	0.00656065	90.000000	0.00651903	90.000000	0.00651563	90.000000	0.00651937	90.000000	0.00655824	90.000000	2.40398e-06	
95.000000	0.00621567	95.000000	0.00629971	95.000000	0.00626004	95.000000	0.00625601	95.000000	0.00625968	95.000000	0.00629742	95.000000	2.28699e-06	
100.000000	0.0059817 	100.000000	0.00606353	100.000000	0.00602473	100.000000	0.00602087	100.000000	0.00602447	100.000000	0.00606135	100.000000	2.18123e-06	
105.000000	0.00576847	105.000000	0.00584872	105.000000	0.00581056	105.000000	0.00580688	105.000000	0.00581042	105.000000	0.00584663	105.000000	2.08515e-06	
110.000000	0.0055733 	110.000000	0.00565247	110.000000	0.00561482	110.000000	0.00561127	110.000000	0.00561476	110.000000	0.00565047	110.000000	1.99745e-06	
115.000000	0.00539391	115.000000	0.00547246	115.000000	0.00543519	115.000000	0.00543177	115.000000	0.0054352 	115.000000	0.00547054	115.000000	1.91708e-06	
120.000000	0.00522843	120.000000	0.00530673	120.000000	0.00526973	120.000000	0.00526644	120.000000	0.00526982	120.000000	0.00530489	120.000000	1.84315e-06	
125.000000	0.00507526	125.000000	0.00515364	125.000000	0.00511686	125.000000	0.00511366	125.000000	0.00511699	125.000000	0.00515187	125.000000	1.77489e-06	
130.000000	0.00493304	130.000000	0.00501179	130.000000	0.00497514	130.000000	0.00497204	130.000000	0.00497533	130.000000	0.00501007	130.000000	1.71168e-06	
135.000000	0.00480061	135.000000	0.00487996	135.000000	0.00484334	135.000000	0.00484041	135.000000	0.00484365	135.000000	0.00487831	135.000000	1.65297e-06	
140.000000	0.00467696	140.000000	0.00475714	140.000000	0.00472087	140.000000	0.00471773	140.000000	0.00472093	140.000000	0.00475554	140.000000	1.59829e-06	
145.000000	0.00456123	145.000000	0.00464241	145.000000	0.00460654	145.000000	0.00460311	145.000000	0.00460627	145.000000	0.00464086	145.000000	1.54723e-06	
150.000000	0.00445266	150.000000	0.004535  	150.000000	0.00449911	150.000000	0.00449579	150.000000	0.00449892	150.000000	0.0045335 	150.000000	1.49944e-06	
155.000000	0.00429979	155.000000	0.00443424	155.000000	0.00439829	155.000000	0.00439509	155.000000	0.00439818	155.000000	0.00443278	155.000000	1.45462e-06	
160.000000	0.00421019	160.000000	0.00433951	160.000000	0.00430355	160.000000	0.00430041	160.000000	0.00430346	160.000000	0.00433809	160.000000	1.41248e-06	
165.000000	0.00412569	165.000000	0.00425028	165.000000	0.00421429	165.000000	0.00421123	165.000000	0.00421425	165.000000	0.00424891	165.000000	1.37281e-06	
170.000000	0.00404587	170.000000	0.0041661 	170.000000	0.00413007	170.000000	0.00412708	170.000000	0.00413007	170.000000	0.00416477	170.000000	1.33537e-06	
175.000000	0.00397035	175.000000	0.00408654	175.000000	0.00405047	175.000000	0.00404755	175.000000	0.00405051	175.000000	0.00408524	175.000000	1.29999e-06	
180.000000	0.00389877	180.000000	0.00401124	180.000000	0.00397513	180.000000	0.00397227	180.000000	0.0039752 	180.000000	0.00400997	180.000000	1.2665e-06	
185.000000	0.00383084	185.000000	0.00393985	185.000000	0.00390371	185.000000	0.0039009 	185.000000	0.00390381	185.000000	0.00393862	185.000000	1.23476e-06	
190.000000	0.00376628	190.000000	0.00387208	190.000000	0.00383592	190.000000	0.00383316	190.000000	0.00383604	190.000000	0.00387088	190.000000	1.20461e-06	
195.000000	0.00370485	195.000000	0.00380767	195.000000	0.00377144	195.000000	0.00376877	195.000000	0.00377162	195.000000	0.00380649	195.000000	1.17596e-06	
200.000000	0.00364631	200.000000	0.00374636	200.000000	0.0037101 	200.000000	0.00370749	200.000000	0.00371032	200.000000	0.00374521	200.000000	1.14868e-06	
210.000000	0.00353714	210.000000	0.00363222	210.000000	0.00359632	210.000000	0.00359342	210.000000	0.0035962 	210.000000	0.00363112	210.000000	1.09787e-06	
220.000000	0.00343736	220.000000	0.00352812	220.000000	0.0034923 	220.000000	0.00348941	220.000000	0.00349214	220.000000	0.00352707	220.000000	1.05151e-06	
230.000000	0.00334581	230.000000	0.00343281	230.000000	0.00339698	230.000000	0.0033942 	230.000000	0.00339689	230.000000	0.0034318 	230.000000	1.00903e-06	
240.000000	0.00326149	240.000000	0.00334522	240.000000	0.00330943	240.000000	0.00330672	240.000000	0.00330938	240.000000	0.00334425	240.000000	9.6996e-07	
250.000000	0.00318358	250.000000	0.00326445	250.000000	0.00322872	250.000000	0.00322609	250.000000	0.00322872	250.000000	0.00326352	250.000000	9.33898e-07	
260.000000	0.00311138	260.000000	0.00318975	260.000000	0.0031541 	260.000000	0.00315155	260.000000	0.00315413	260.000000	0.00318885	260.000000	9.00506e-07	
270.000000	0.00304427	270.000000	0.00312045	270.000000	0.00308492	270.000000	0.00308242	270.000000	0.00308498	270.000000	0.00311958	270.000000	8.69495e-07	
280.000000	0.00298174	280.000000	0.003056  	280.000000	0.0030206 	280.000000	0.00301816	280.000000	0.00302069	280.000000	0.00305516	280.000000	8.40618e-07	
290.000000	0.00292333	290.000000	0.00299592	290.000000	0.00296062	290.000000	0.00295828	290.000000	0.00296078	290.000000	0.0029951 	290.000000	8.13659e-07	
300.000000	0.00286866	300.000000	0.00293977	300.000000	0.0029048 	300.000000	0.00290235	300.000000	0.00290482	300.000000	0.00293898	300.000000	7.8843e-07	
310.000000	0.00281737	310.000000	0.0028872 	310.000000	0.00285262	310.000000	0.00285   	310.000000	0.00285245	310.000000	0.00288643	310.000000	7.64769e-07	
320.000000	0.00276916	320.000000	0.00283787	320.000000	0.00280347	320.000000	0.00280091	320.000000	0.00280333	320.000000	0.00283713	320.000000	7.42532e-07	
330.000000	0.00272377	330.000000	0.0027915 	330.000000	0.00275727	330.000000	0.00275479	330.000000	0.00275719	330.000000	0.00279078	330.000000	7.21593e-07	
340.000000	0.00268096	340.000000	0.00274784	340.000000	0.00271383	340.000000	0.00271138	340.000000	0.00271376	340.000000	0.00274714	340.000000	7.01841e-07	
350.000000	0.00264051	350.000000	0.00270666	350.000000	0.00267286	350.000000	0.00267045	350.000000	0.00267281	350.000000	0.00270598	350.000000	6.83176e-07	
360.000000	0.00260225	360.000000	0.00266776	360.000000	0.00263419	360.000000	0.00263182	360.000000	0.00263416	360.000000	0.0026671 	360.000000	6.6551e-07	
370.000000	0.002566  	370.000000	0.00263097	370.000000	0.00259762	370.000000	0.00259529	370.000000	0.00259761	370.000000	0.00263032	370.000000	6.48764e-07	
380.000000	0.00253161	380.000000	0.00259611	380.000000	0.002563  	380.000000	0.0025607 	380.000000	0.00256301	380.000000	0.00259548	380.000000	6.32867e-07	
390.000000	0.00249895	390.000000	0.00256306	390.000000	0.00253017	390.000000	0.00252791	390.000000	0.0025302 	390.000000	0.00256244	390.000000	6.17755e-07	
400.000000	0.00246788	400.000000	0.00253166	400.000000	0.00249901	400.000000	0.00249679	400.000000	0.00249906	400.000000	0.00253106	400.000000	6.03372e-07	
