Energy (MeV/u)1	0 - [He-base] F.Hubert et al, AD&ND Tables 46(1990)1	Energy (MeV/u)2	1 - [H -base] J.F.Ziegler et al,Pergamon Press,NY(low energy)	Energy (MeV/u)3	2 - ATIMA 1.2 LS-theory (recommended for high energy)	Energy (MeV/u)4	3 - ATIMA 1.2 without LS-correction	Energy (MeV/u)5	4 - ATIMA 1.4 H.Weick, improved mean charge formula for HI	Energy (MeV/u)6	5 - electrical component of [1] - J.F.Ziegler et al	Energy (MeV/u)7	6 - nuclear component of [1] - J.F.Ziegler et al	
0.001000	0.206423  	0.001000	0.0898447 	0.001000	0.111157  	0.001000	0.111157  	0.001000	0.111088  	0.001000	0.0747141 	0.001000	0.0151306 	
0.002000	0.24593   	0.002000	0.113929  	0.002000	0.143041  	0.002000	0.143041  	0.002000	0.142998  	0.002000	0.102063  	0.002000	0.0118662 	
0.005000	0.32298   	0.005000	0.161706  	0.005000	0.205676  	0.005000	0.205676  	0.005000	0.205655  	0.005000	0.154148  	0.005000	0.00755726	
0.008000	0.375814  	0.008000	0.196178  	0.008000	0.250504  	0.008000	0.250504  	0.008000	0.250491  	0.008000	0.190455  	0.008000	0.00572309	
0.010000	0.40462   	0.010000	0.215544  	0.010000	0.275608  	0.010000	0.275608  	0.010000	0.275597  	0.010000	0.210573  	0.010000	0.00497048	
0.015000	0.488016  	0.015000	0.268071  	0.015000	0.328608  	0.015000	0.328608  	0.015000	0.3286    	0.015000	0.264273  	0.015000	0.00379825	
0.020000	0.556346  	0.020000	0.316611  	0.020000	0.372812  	0.020000	0.372812  	0.020000	0.372807  	0.020000	0.3135    	0.020000	0.00311082	
0.025000	0.612858  	0.025000	0.35935   	0.025000	0.411381  	0.025000	0.411381  	0.025000	0.411377  	0.025000	0.356722  	0.025000	0.00262869	
0.030000	0.659287  	0.030000	0.395995  	0.030000	0.425087  	0.030000	0.425087  	0.030000	0.425084  	0.030000	0.393693  	0.030000	0.00230221	
0.035000	0.696776  	0.035000	0.426798  	0.035000	0.438407  	0.035000	0.438407  	0.035000	0.438404  	0.035000	0.424744  	0.035000	0.00205423	
0.040000	0.726226  	0.040000	0.452278  	0.040000	0.451143  	0.040000	0.451143  	0.040000	0.45114   	0.040000	0.450419  	0.040000	0.00185877	
0.045000	0.748445  	0.045000	0.473022  	0.045000	0.463138  	0.045000	0.463138  	0.045000	0.463136  	0.045000	0.471322  	0.045000	0.00170032	
0.050000	0.764212  	0.050000	0.489618  	0.050000	0.474269  	0.050000	0.474269  	0.050000	0.474267  	0.050000	0.488049  	0.050000	0.001569  	
0.055000	0.774294  	0.055000	0.502621  	0.055000	0.484439  	0.055000	0.484439  	0.055000	0.484437  	0.055000	0.501163  	0.055000	0.00145819	
0.060000	0.779447  	0.060000	0.512539  	0.060000	0.493579  	0.060000	0.493579  	0.060000	0.493577  	0.060000	0.511176  	0.060000	0.00136332	
0.070000	0.777842  	0.070000	0.524896  	0.070000	0.508603  	0.070000	0.508603  	0.070000	0.508602  	0.070000	0.523687  	0.070000	0.00120901	
0.080000	0.764696  	0.080000	0.529713  	0.080000	0.519216  	0.080000	0.519216  	0.080000	0.519215  	0.080000	0.528625  	0.080000	0.00108854	
0.090000	0.744373  	0.090000	0.529261  	0.090000	0.52557   	0.090000	0.52557   	0.090000	0.525569  	0.090000	0.528269  	0.090000	0.000991633	
0.100000	0.720179  	0.100000	0.525193  	0.100000	0.52802   	0.100000	0.52802   	0.100000	0.528019  	0.100000	0.524281  	0.100000	0.000911823	
0.120000	0.668683  	0.120000	0.510619  	0.120000	0.523203  	0.120000	0.523203  	0.120000	0.523203  	0.120000	0.509831  	0.120000	0.000787762	
0.140000	0.620388  	0.140000	0.491915  	0.140000	0.509086  	0.140000	0.509086  	0.140000	0.509085  	0.140000	0.49122   	0.140000	0.00069545	
0.160000	0.578462  	0.160000	0.472015  	0.160000	0.489628  	0.160000	0.489628  	0.160000	0.489627  	0.160000	0.471391  	0.160000	0.000623849	
0.180000	0.543039  	0.180000	0.452336  	0.180000	0.467813  	0.180000	0.467813  	0.180000	0.467812  	0.180000	0.451769  	0.180000	0.000566552	
0.200000	0.513233  	0.200000	0.433531  	0.200000	0.445606  	0.200000	0.445606  	0.200000	0.445606  	0.200000	0.433012  	0.200000	0.000519574	
0.250000	0.45663   	0.250000	0.391652  	0.250000	0.394619  	0.250000	0.394619  	0.250000	0.394619  	0.250000	0.39122   	0.250000	0.000432055	
0.300000	0.416269  	0.300000	0.356967  	0.300000	0.353401  	0.300000	0.353401  	0.300000	0.353401  	0.300000	0.356596  	0.300000	0.000371209	
0.350000	0.385279  	0.350000	0.328248  	0.350000	0.321073  	0.350000	0.321073  	0.350000	0.321073  	0.350000	0.327922  	0.350000	0.00032627	
0.400000	0.360148  	0.400000	0.304223  	0.400000	0.295497  	0.400000	0.295497  	0.400000	0.295497  	0.400000	0.303932  	0.400000	0.000291618	
0.450000	0.338997  	0.450000	0.283871  	0.450000	0.27484   	0.450000	0.27484   	0.450000	0.27484   	0.450000	0.283607  	0.450000	0.000264024	
0.500000	0.320742  	0.500000	0.266419  	0.500000	0.257774  	0.500000	0.257774  	0.500000	0.257774  	0.500000	0.266177  	0.500000	0.000241492	
0.600000	0.290438  	0.600000	0.238025  	0.600000	0.231007  	0.600000	0.231007  	0.600000	0.231007  	0.600000	0.237818  	0.600000	0.000206826	
0.700000	0.266013  	0.700000	0.215869  	0.700000	0.210681  	0.700000	0.210681  	0.700000	0.210681  	0.700000	0.215687  	0.700000	0.000181324	
0.800000	0.245754  	0.800000	0.198049  	0.800000	0.19449   	0.800000	0.19449   	0.800000	0.19449   	0.800000	0.197887  	0.800000	0.000161725	
0.900000	0.228612  	0.900000	0.183368  	0.900000	0.181151  	0.900000	0.181151  	0.900000	0.181151  	0.900000	0.183222  	0.900000	0.000146159	
1.000000	0.213886  	1.000000	0.171037  	1.000000	0.16989   	1.000000	0.16989   	1.000000	0.16989   	1.000000	0.170903  	1.000000	0.000133479	
1.250000	0.184698  	1.250000	0.147297  	1.250000	0.147926  	1.250000	0.147926  	1.250000	0.147926  	1.250000	0.147187  	1.250000	0.000110062	
1.500000	0.162953  	1.500000	0.13014   	1.500000	0.131719  	1.500000	0.131719  	1.500000	0.131719  	1.500000	0.130046  	1.500000	9.39512e-05	
1.750000	0.146074  	1.750000	0.117079  	1.750000	0.119148  	1.750000	0.119148  	1.750000	0.119148  	1.750000	0.116997  	1.750000	8.21476e-05	
2.000000	0.13256   	2.000000	0.106753  	2.000000	0.109057  	2.000000	0.109057  	2.000000	0.109057  	2.000000	0.10668   	2.000000	7.31056e-05	
2.250000	0.121479  	2.250000	0.0983537 	2.250000	0.100744  	2.250000	0.100744  	2.250000	0.100744  	2.250000	0.0982877 	2.250000	6.59443e-05	
2.500000	0.11173   	2.500000	0.0913677 	2.500000	0.0937584 	2.500000	0.0937584 	2.500000	0.0937584 	2.500000	0.0913075 	2.500000	6.01241e-05	
3.000000	0.0975606 	3.000000	0.0803678 	3.000000	0.0826296 	3.000000	0.0826296 	3.000000	0.0826296 	3.000000	0.0803166 	3.000000	5.12197e-05	
3.500000	0.0868065 	3.500000	0.0720555 	3.500000	0.0741188 	3.500000	0.0741188 	3.500000	0.0741188 	3.500000	0.0720108 	3.500000	4.47117e-05	
4.000000	0.0783425 	4.000000	0.0655207 	4.000000	0.0673709 	4.000000	0.0673709 	4.000000	0.0673709 	4.000000	0.065481  	4.000000	3.97359e-05	
4.500000	0.0714933 	4.500000	0.0602285 	4.500000	0.0618724 	4.500000	0.0618724 	4.500000	0.0618724 	4.500000	0.0601927 	4.500000	3.58016e-05	
5.000000	0.0658281 	5.000000	0.0558424 	5.000000	0.0572946 	5.000000	0.0572946 	5.000000	0.0572946 	5.000000	0.0558098 	5.000000	3.26085e-05	
5.500000	0.0610583 	5.500000	0.0521393 	5.500000	0.0534165 	5.500000	0.0534165 	5.500000	0.0534165 	5.500000	0.0521093 	5.500000	2.99624e-05	
6.000000	0.056983  	6.000000	0.048965  	6.000000	0.0500839 	6.000000	0.0500839 	6.000000	0.0500839 	6.000000	0.0489373 	6.000000	2.7732e-05	
6.500000	0.0534578 	6.500000	0.0462094 	6.500000	0.0471854 	6.500000	0.0471854 	6.500000	0.0471854 	6.500000	0.0461836 	6.500000	2.58249e-05	
7.000000	0.0503763 	7.000000	0.0437914 	7.000000	0.0446385 	7.000000	0.0446385 	7.000000	0.0446386 	7.000000	0.0437672 	7.000000	2.41748e-05	
7.500000	0.0476579 	7.500000	0.0416501 	7.500000	0.0423808 	7.500000	0.0423808 	7.500000	0.0423808 	7.500000	0.0416273 	7.500000	2.27321e-05	
8.000000	0.0452408 	8.000000	0.0397385 	8.000000	0.040364  	8.000000	0.040364  	8.000000	0.040364  	8.000000	0.039717  	8.000000	2.14595e-05	
8.500000	0.0430766 	8.500000	0.0380201 	8.500000	0.0385502 	8.500000	0.0385502 	8.500000	0.0385502 	8.500000	0.0379998 	8.500000	2.03282e-05	
9.000000	0.0411268 	9.000000	0.0364657 	9.000000	0.0369091 	9.000000	0.0369091 	9.000000	0.0369091 	9.000000	0.0364464 	9.000000	1.93155e-05	
9.500000	0.0393604 	9.500000	0.035052  	9.500000	0.0354164 	9.500000	0.0354164 	9.500000	0.0354164 	9.500000	0.0350336 	9.500000	1.84035e-05	
10.000000	0.0377522 	10.000000	0.0340846 	10.000000	0.0340521 	10.000000	0.0340521 	10.000000	0.0340521 	10.000000	0.034067  	10.000000	1.75775e-05	
11.000000	0.0349308 	11.000000	0.0317329 	11.000000	0.0316197 	11.000000	0.03162   	11.000000	0.0316172 	11.000000	0.0317167 	11.000000	1.61387e-05	
12.000000	0.0325348 	12.000000	0.0297044 	12.000000	0.0295391 	12.000000	0.0295398 	12.000000	0.0295373 	12.000000	0.0296895 	12.000000	1.4927e-05	
13.000000	0.030473  	13.000000	0.0279367 	13.000000	0.0277379 	13.000000	0.0277383 	13.000000	0.0277368 	13.000000	0.0279228 	13.000000	1.38919e-05	
14.000000	0.0286789 	14.000000	0.0263823 	14.000000	0.0261618 	14.000000	0.0261618 	14.000000	0.026161  	14.000000	0.0263693 	14.000000	1.29968e-05	
15.000000	0.0271027 	15.000000	0.0250045 	15.000000	0.0247695 	15.000000	0.0247695 	15.000000	0.0247693 	15.000000	0.0249923 	15.000000	1.22149e-05	
16.000000	0.0257062 	16.000000	0.0237747 	16.000000	0.0235306 	16.000000	0.0235303 	16.000000	0.0235305 	16.000000	0.0237632 	16.000000	1.15255e-05	
17.000000	0.0244599 	17.000000	0.02267   	17.000000	0.0224208 	17.000000	0.0224196 	17.000000	0.0224202 	17.000000	0.0226591 	17.000000	1.09131e-05	
18.000000	0.0233404 	18.000000	0.0216721 	18.000000	0.0214198 	18.000000	0.021418  	18.000000	0.021419  	18.000000	0.0216617 	18.000000	1.03651e-05	
19.000000	0.0223288 	19.000000	0.020766  	19.000000	0.0205117 	19.000000	0.02051   	19.000000	0.0205113 	19.000000	0.0207561 	19.000000	9.87186e-06	
20.000000	0.0214101 	20.000000	0.0199395 	20.000000	0.0196846 	20.000000	0.0196828 	20.000000	0.0196845 	20.000000	0.01993   	20.000000	9.42538e-06	
21.000000	0.0205717 	21.000000	0.0191824 	21.000000	0.0189279 	21.000000	0.018926  	21.000000	0.018928  	21.000000	0.0191733 	21.000000	9.01923e-06	
22.000000	0.0198034 	22.000000	0.0184862 	22.000000	0.0182327 	22.000000	0.0182309 	22.000000	0.0182332 	22.000000	0.0184775 	22.000000	8.64811e-06	
23.000000	0.0190966 	23.000000	0.0178437 	23.000000	0.017592  	23.000000	0.0175902 	23.000000	0.0175927 	23.000000	0.0178354 	23.000000	8.3076e-06	
24.000000	0.018444  	24.000000	0.017249  	24.000000	0.0170003 	24.000000	0.0169977 	24.000000	0.0170005 	24.000000	0.017241  	24.000000	7.99403e-06	
25.000000	0.0178395 	25.000000	0.0166967 	25.000000	0.0164519 	25.000000	0.0164481 	25.000000	0.0164513 	25.000000	0.016689  	25.000000	7.70426e-06	
27.000000	0.0167548 	27.000000	0.0157024 	27.000000	0.0154655 	27.000000	0.0154607 	27.000000	0.0154645 	27.000000	0.0156952 	27.000000	7.18593e-06	
29.000000	0.0158086 	29.000000	0.014832  	29.000000	0.0146035 	29.000000	0.0145988 	29.000000	0.0146032 	29.000000	0.0148252 	29.000000	6.73562e-06	
31.000000	0.0149756 	31.000000	0.0140632 	31.000000	0.0138511 	31.000000	0.0138464 	31.000000	0.013851  	31.000000	0.0140569 	31.000000	6.34058e-06	
33.000000	0.0142362 	33.000000	0.0133792 	33.000000	0.0131872 	33.000000	0.0131827 	33.000000	0.0131874 	33.000000	0.0133732 	33.000000	5.9911e-06	
35.000000	0.0135753 	35.000000	0.0127664 	35.000000	0.0125917 	35.000000	0.0125877 	35.000000	0.0125924 	35.000000	0.0127608 	35.000000	5.67963e-06	
38.000000	0.0127051 	38.000000	0.011958  	38.000000	0.0118072 	38.000000	0.0118019 	38.000000	0.0118066 	38.000000	0.0119527 	38.000000	5.271e-06 	
41.000000	0.0119535 	41.000000	0.0112582 	41.000000	0.0111263 	41.000000	0.0111208 	41.000000	0.0111255 	41.000000	0.0112533 	41.000000	4.91936e-06	
44.000000	0.0112973 	44.000000	0.0106463 	44.000000	0.0105294 	44.000000	0.0105244 	44.000000	0.0105291 	44.000000	0.0106417 	44.000000	4.61343e-06	
47.000000	0.0107192 	47.000000	0.0101065 	47.000000	0.0100023 	47.000000	0.00999757	47.000000	0.0100022 	47.000000	0.0101022 	47.000000	4.34473e-06	
50.000000	0.0102057 	50.000000	0.00962664	50.000000	0.00953309	50.000000	0.00952861	50.000000	0.00953322	50.000000	0.00962254	50.000000	4.10678e-06	
55.000000	0.00946597	55.000000	0.00893495	55.000000	0.00885561	55.000000	0.00885148	55.000000	0.008856  	55.000000	0.00893118	55.000000	3.76527e-06	
60.000000	0.00884144	60.000000	0.00835068	60.000000	0.00828242	60.000000	0.00827834	60.000000	0.00828276	60.000000	0.0083472 	60.000000	3.47813e-06	
65.000000	0.00830663	65.000000	0.00785034	65.000000	0.00779142	65.000000	0.0077866 	65.000000	0.00779092	65.000000	0.00784711	65.000000	3.23321e-06	
70.000000	0.00784316	70.000000	0.00741688	70.000000	0.00736422	70.000000	0.00735983	70.000000	0.00736406	70.000000	0.00741385	70.000000	3.02171e-06	
75.000000	0.00743736	75.000000	0.00703758	75.000000	0.00698993	75.000000	0.00698578	75.000000	0.00698992	75.000000	0.00703474	75.000000	2.83716e-06	
80.000000	0.00707889	80.000000	0.00670279	80.000000	0.00665904	80.000000	0.00665512	80.000000	0.00665919	80.000000	0.00670012	80.000000	2.67466e-06	
85.000000	0.00675975	85.000000	0.00640503	85.000000	0.00636434	85.000000	0.00636063	85.000000	0.00636462	85.000000	0.0064025 	85.000000	2.53043e-06	
90.000000	0.00647368	90.000000	0.00613842	90.000000	0.00610017	90.000000	0.00609661	90.000000	0.00610052	90.000000	0.00613602	90.000000	2.40151e-06	
95.000000	0.00621567	95.000000	0.00589826	95.000000	0.00586273	95.000000	0.00585851	95.000000	0.00586235	95.000000	0.00589598	95.000000	2.28557e-06	
100.000000	0.0059817 	100.000000	0.00568077	100.000000	0.00564669	100.000000	0.00564265	100.000000	0.00564643	100.000000	0.00567859	100.000000	2.18071e-06	
105.000000	0.00576847	105.000000	0.00548285	105.000000	0.00544988	105.000000	0.00544602	105.000000	0.00544973	105.000000	0.00548077	105.000000	2.08541e-06	
110.000000	0.0055733 	110.000000	0.00530196	110.000000	0.00526986	110.000000	0.00526615	110.000000	0.0052698 	110.000000	0.00529996	110.000000	1.99838e-06	
115.000000	0.00539391	115.000000	0.00513596	115.000000	0.00510453	115.000000	0.00510095	115.000000	0.00510454	115.000000	0.00513404	115.000000	1.9186e-06	
120.000000	0.00522843	120.000000	0.00498307	120.000000	0.00495213	120.000000	0.00494868	120.000000	0.00495222	120.000000	0.00498123	120.000000	1.84517e-06	
125.000000	0.00507526	125.000000	0.00484179	125.000000	0.00481123	125.000000	0.00480788	125.000000	0.00481137	125.000000	0.00484001	125.000000	1.77736e-06	
130.000000	0.00493304	130.000000	0.00471084	130.000000	0.00468053	130.000000	0.00467729	130.000000	0.00468074	130.000000	0.00470912	130.000000	1.71455e-06	
135.000000	0.00480061	135.000000	0.00458911	135.000000	0.0045589 	135.000000	0.00455583	135.000000	0.00455923	135.000000	0.00458745	135.000000	1.65618e-06	
140.000000	0.00467696	140.000000	0.00447565	140.000000	0.00444587	140.000000	0.00444258	140.000000	0.00444593	140.000000	0.00447405	140.000000	1.6018e-06	
145.000000	0.00456123	145.000000	0.00436965	145.000000	0.0043403 	145.000000	0.00433671	145.000000	0.00434002	145.000000	0.0043681 	145.000000	1.55101e-06	
150.000000	0.00445266	150.000000	0.00427039	150.000000	0.00424102	150.000000	0.00423754	150.000000	0.00424081	150.000000	0.00426889	150.000000	1.50346e-06	
155.000000	0.00429979	155.000000	0.00417725	155.000000	0.00414779	155.000000	0.00414444	155.000000	0.00414767	155.000000	0.00417579	155.000000	1.45885e-06	
160.000000	0.00421019	160.000000	0.00408966	160.000000	0.00406016	160.000000	0.00405687	160.000000	0.00406007	160.000000	0.00408825	160.000000	1.41691e-06	
165.000000	0.00412569	165.000000	0.00400716	165.000000	0.00397756	165.000000	0.00397436	165.000000	0.00397752	165.000000	0.00400578	165.000000	1.3774e-06	
170.000000	0.00404587	170.000000	0.0039293 	170.000000	0.0038996 	170.000000	0.00389647	170.000000	0.0038996 	170.000000	0.00392796	170.000000	1.34011e-06	
175.000000	0.00397035	175.000000	0.0038557 	175.000000	0.0038259 	175.000000	0.00382283	175.000000	0.00382593	175.000000	0.00385439	175.000000	1.30486e-06	
180.000000	0.00389877	180.000000	0.00378602	180.000000	0.0037561 	180.000000	0.00375311	180.000000	0.00375618	180.000000	0.00378475	180.000000	1.27149e-06	
185.000000	0.00383084	185.000000	0.00371996	185.000000	0.00368993	185.000000	0.00368699	185.000000	0.00369003	185.000000	0.00371872	185.000000	1.23985e-06	
190.000000	0.00376628	190.000000	0.00365724	190.000000	0.0036271 	190.000000	0.00362421	190.000000	0.00362722	190.000000	0.00365603	190.000000	1.2098e-06	
195.000000	0.00370485	195.000000	0.00359761	195.000000	0.00356732	195.000000	0.00356452	195.000000	0.00356751	195.000000	0.00359643	195.000000	1.18123e-06	
200.000000	0.00364631	200.000000	0.00354086	200.000000	0.00351043	200.000000	0.0035077 	200.000000	0.00351066	200.000000	0.0035397 	200.000000	1.15402e-06	
210.000000	0.00353714	210.000000	0.00343517	210.000000	0.00340494	210.000000	0.00340189	210.000000	0.0034048 	210.000000	0.00343406	210.000000	1.10333e-06	
220.000000	0.00343736	220.000000	0.00333876	220.000000	0.00330841	220.000000	0.00330538	220.000000	0.00330824	220.000000	0.0033377 	220.000000	1.05707e-06	
230.000000	0.00334581	230.000000	0.00325047	230.000000	0.00321991	230.000000	0.003217  	230.000000	0.00321982	230.000000	0.00324945	230.000000	1.01466e-06	
240.000000	0.00326149	240.000000	0.00316931	240.000000	0.00313862	240.000000	0.00313578	240.000000	0.00313856	240.000000	0.00316834	240.000000	9.75638e-07	
250.000000	0.00318358	250.000000	0.00309447	250.000000	0.00306365	250.000000	0.0030609 	250.000000	0.00306364	250.000000	0.00309353	250.000000	9.39612e-07	
260.000000	0.00311138	260.000000	0.00302523	260.000000	0.00299432	260.000000	0.00299164	260.000000	0.00299435	260.000000	0.00302432	260.000000	9.06244e-07	
270.000000	0.00304427	270.000000	0.002961  	270.000000	0.00293003	270.000000	0.00292742	270.000000	0.0029301 	270.000000	0.00296012	270.000000	8.75247e-07	
280.000000	0.00298174	280.000000	0.00290125	280.000000	0.00287025	280.000000	0.00286771	280.000000	0.00287035	280.000000	0.0029004 	280.000000	8.46374e-07	
290.000000	0.00292333	290.000000	0.00284554	290.000000	0.0028145 	290.000000	0.00281205	290.000000	0.00281467	290.000000	0.00284472	290.000000	8.19411e-07	
300.000000	0.00286866	300.000000	0.00279348	300.000000	0.00276264	300.000000	0.00276007	300.000000	0.00276266	300.000000	0.00279268	300.000000	7.94173e-07	
310.000000	0.00281737	310.000000	0.00274472	310.000000	0.00271416	310.000000	0.00271141	310.000000	0.00271398	310.000000	0.00274395	310.000000	7.70498e-07	
320.000000	0.00276916	320.000000	0.00269897	320.000000	0.00266847	320.000000	0.00266578	320.000000	0.00266832	320.000000	0.00269822	320.000000	7.48242e-07	
330.000000	0.00272377	330.000000	0.00265596	330.000000	0.00262552	330.000000	0.00262292	330.000000	0.00262543	330.000000	0.00265524	330.000000	7.27281e-07	
340.000000	0.00268096	340.000000	0.00261546	340.000000	0.00258514	340.000000	0.00258257	340.000000	0.00258506	340.000000	0.00261476	340.000000	7.07503e-07	
350.000000	0.00264051	350.000000	0.00257726	350.000000	0.00254706	350.000000	0.00254454	350.000000	0.00254701	350.000000	0.00257657	350.000000	6.8881e-07	
360.000000	0.00260225	360.000000	0.00254118	360.000000	0.00251112	360.000000	0.00250864	360.000000	0.00251109	360.000000	0.0025405 	360.000000	6.71114e-07	
370.000000	0.002566  	370.000000	0.00250704	370.000000	0.00247714	370.000000	0.0024747 	370.000000	0.00247713	370.000000	0.00250638	370.000000	6.54336e-07	
380.000000	0.00253161	380.000000	0.0024747 	380.000000	0.00244497	380.000000	0.00244257	380.000000	0.00244498	380.000000	0.00247406	380.000000	6.38406e-07	
390.000000	0.00249895	390.000000	0.00244402	390.000000	0.00241448	390.000000	0.00241211	390.000000	0.00241451	390.000000	0.0024434 	390.000000	6.2326e-07	
400.000000	0.00246788	400.000000	0.00241489	400.000000	0.00238554	400.000000	0.00238321	400.000000	0.00238559	400.000000	0.00241428	400.000000	6.08841e-07	
